# k  (h/Mpc)    Pcb(k)  (Mpc/h)^3    Pcb_linear(k) (Mpc/h)^3   ShotnoiseSubtracted = true
      0.0200456         167.367         169.209 
      0.0350414         133.446         132.677 
      0.0492313         105.229         105.121 
      0.0637834         85.0788         85.4804 
      0.0800726         64.6106         64.5722 
       0.096163         51.1367         50.7902 
       0.111083         43.2279         42.9938 
       0.126058         35.6849         35.7401 
       0.142273         29.0919          29.083 
       0.158546         24.7718         24.7754 
        0.17375         21.6415         21.5554 
       0.188953         18.5777         18.5311 
       0.204907          15.898         16.0413 
       0.220756         14.1627          14.178 
        0.23588         12.5791         12.5931 
         0.2514         11.1738         11.1585 
       0.267535         9.98469         9.95147 
       0.283568         8.95154         8.94226 
       0.299022         8.08818         8.07511 
       0.314451         7.40572         7.32137 
       0.330372         6.69227         6.65691 
       0.346141         6.10851         6.07698 
       0.361624         5.58503         5.56967 
       0.377134         5.12423         5.12101 
       0.392932         4.80069         4.71671 
       0.408854         4.36539         4.35218 
       0.424564         4.09019         4.02929 
       0.440253         3.77188         3.74028 
       0.455999         3.48259         3.47897 
       0.471626         3.24753         3.24394 
        0.48727         3.07123         3.03035 
       0.502856         2.87772          2.8368 
       0.518488         2.66486         2.65966 
       0.534347          2.4909         2.49533 
       0.550082         2.37049         2.34603 
       0.565732         2.25205          2.2097 
       0.581496          2.1073         2.08333 
       0.597222         1.98776         1.96712 
       0.612804         1.87792         1.86076 
       0.628434         1.77903           1.762 
       0.644267         1.69423         1.66929 
       0.660051         1.60784         1.58353 
       0.675724          1.5178         1.50435 
       0.691403         1.44478         1.43058 
       0.707174         1.37545         1.36138 
       0.722871         1.33074         1.29707 
        0.73838         1.24863         1.23763 
       0.754018         1.19178         1.18148 
       0.769845         1.13043         1.12821 
        0.78569         1.09167         1.07818 
       0.801365         1.04667         1.03169 
       0.817031          1.0043        0.987975 
       0.832809        0.955861        0.946521 
       0.848511        0.919514        0.907637 
       0.864097        0.886637        0.871211 
       0.879701        0.855569        0.836756 
       0.895507        0.812059        0.803763 
       0.911279         0.78684        0.772624 
        0.92691        0.762168        0.743399 
       0.942635        0.724706         0.71553 
       0.958396        0.700446        0.689038 
       0.974128        0.675748         0.66394 
       0.989692        0.651847        0.640347 
        1.00528        0.625294        0.617871 
        1.02113        0.610036        0.596127 
        1.03692        0.589592        0.575515 
        1.05264        0.565364        0.555977 
        1.06832        0.547984        0.537382 
        1.08405         0.52757        0.519591 
        1.09979         0.51277        0.502599 
        1.11537        0.493094        0.486539 
        1.13105        0.475653        0.471088 
        1.14679        0.463887        0.456251 
        1.16256        0.450894        0.442027 
        1.17828        0.437656        0.428459 
        1.19395        0.424447        0.415508 
         1.2097          0.4103        0.403029 
        1.22537        0.396708        0.391124 
          1.241        0.385905        0.379738 
        1.25666        0.377073        0.368779 
        1.27241        0.364464        0.358202 
        1.28819        0.353439        0.348023 
        1.30392        0.345171        0.338271 
        1.31957        0.334607        0.328938 
        1.33529        0.326387        0.319923 
        1.35108        0.316076        0.311212 
        1.36674        0.308183        0.302888 
         1.3824        0.300422        0.294878 
        1.39811        0.291143        0.287131 
        1.41389          0.2854        0.279634 
        1.42964        0.277335        0.272418 
        1.44531        0.269615        0.265493 
        1.46101        0.261986        0.258794 
        1.47667        0.256341        0.252348 
        1.49229        0.249706        0.246138 
        1.50793        0.243993        0.240132 
        1.52367         0.23741        0.234287 
        1.53953        0.231213        0.228599 
        1.55526        0.225937        0.223145 
        1.57092        0.222178        0.217892 
        1.58662        0.216418        0.212797 
        1.60235        0.211146        0.207855 
        1.61809        0.205698        0.203067 
        1.63369        0.200833        0.198474 
        1.64941        0.196686         0.19399 
        1.66519        0.192552        0.189628 
        1.68085        0.187366        0.185433 
        1.69652        0.183693        0.181363 
        1.71228        0.179171        0.177392 
        1.72806        0.175907        0.173538 
        1.74368        0.171668        0.169837 
        1.75933        0.168466        0.166236 
        1.77505        0.165146        0.162724 
        1.79081        0.160846        0.159307 
         1.8065        0.157999        0.156003 
        1.82218        0.153854        0.152796 
        1.83797        0.150653        0.149657 
        1.85367         0.14767        0.146623 
        1.86928        0.144128        0.143693 
        1.88497        0.141489        0.140826 
        1.90073        0.138375        0.138027 
        1.91647         0.13655        0.135307 
        1.93218        0.134415        0.132666 
        1.94787        0.130458          0.1301 
        1.96363        0.128175        0.127592 
        1.97935        0.125632        0.125154 
        1.99499        0.123159        0.122795 
        2.01064        0.120853        0.120493 
         2.0264        0.118904        0.118235 
        2.04216        0.116271        0.116037 
        2.05781        0.113892        0.113908 
        2.07353        0.112064        0.111826 
        2.08928        0.110226        0.109791 
        2.10499        0.107777        0.107812 
        2.12065        0.105967        0.105888 
        2.13633        0.104079        0.104009 
        2.15211        0.102351        0.102164 
        2.16785       0.0999192        0.100369 
        2.18349       0.0984275       0.0986279 
        2.19916       0.0964024       0.0969248 
        2.21489       0.0947219       0.0952563 
        2.23063       0.0932787       0.0936261 
         2.2463       0.0917006       0.0920413 
        2.26194       0.0902239       0.0904973 
        2.27765       0.0886482       0.0889808 
        2.29341       0.0866953       0.0874951 
        2.30914       0.0853583       0.0860464 
        2.32486       0.0838383       0.0846314 
        2.34061       0.0824028        0.083246 
        2.35635       0.0810862       0.0818927 
        2.37203       0.0805147       0.0805743 
        2.38768       0.0787725       0.0792877 
        2.40339       0.0774079       0.0780245 
        2.41914       0.0758849        0.076786 
        2.43483       0.0750183       0.0755787 
         2.4505       0.0735897       0.0743995 
        2.46622        0.072378       0.0732413 
        2.48195       0.0713285       0.0721078 
        2.49759       0.0701453       0.0710043 
        2.51328       0.0685815       0.0699211 
        2.52906       0.0678829       0.0688537 
        2.54479       0.0668712       0.0678125 
        2.56049       0.0656606       0.0667949 
        2.57618       0.0648947       0.0657991 
        2.59189       0.0635394        0.064822 
        2.60758       0.0629549       0.0638664 
        2.62325       0.0615762       0.0629312 
        2.63898       0.0609881       0.0620116 
        2.65468       0.0597841       0.0611122 
        2.67044       0.0589957       0.0602268 
        2.68618       0.0580738        0.059361 
        2.70184       0.0575085       0.0585157 
        2.71755       0.0565004       0.0576848 
        2.73329       0.0557238       0.0568687 
        2.74897       0.0549055       0.0560711 
        2.76462       0.0538923       0.0552906 
        2.78034       0.0532511       0.0545217 
        2.79607       0.0526319       0.0537667 
        2.81179       0.0517424       0.0530268 
        2.82749       0.0511126       0.0523016 
        2.84321       0.0501997       0.0515893 
        2.85893       0.0495269       0.0508904 
        2.87462       0.0489148       0.0502056 
        2.89033       0.0481865       0.0495329 
        2.90605       0.0475038       0.0488719 
        2.92176       0.0470551       0.0482233 
        2.93747       0.0461644       0.0475868 
        2.95318        0.045717       0.0469616 
        2.96891       0.0450145       0.0463474 
        2.98456       0.0443118       0.0457469 
        3.00023       0.0440359       0.0451562 
        3.01596       0.0430365       0.0445741 
        3.03164       0.0426201       0.0440039 
        3.04738       0.0420649        0.043442 
         3.0631       0.0412919       0.0428901 
        3.07883       0.0410073       0.0423478 
        3.09456       0.0404917        0.041815 
        3.11026       0.0398614       0.0412921 
        3.12596        0.039596       0.0407783 
        3.14163       0.0388997       0.0402744 
        3.15734       0.0385566       0.0397778 
        3.17308       0.0380001       0.0392884 
        3.18879       0.0374691       0.0388085 
        3.20447       0.0369653       0.0383374 
         3.2202        0.036555       0.0378727 
         3.2359       0.0361112       0.0374164 
        3.25157       0.0357212       0.0369688 
        3.26729       0.0352523       0.0365272 
        3.28304        0.034898       0.0360919 
        3.29877       0.0344146       0.0356642 
        3.31446       0.0339472       0.0352445 
        3.33014       0.0336248       0.0348318 
        3.34585       0.0332171       0.0344252 
        3.36158       0.0328217       0.0340244 
        3.37727       0.0323687       0.0336312 
        3.39294       0.0320457       0.0332446 
        3.40867        0.031752       0.0328628 
        3.42439       0.0313739       0.0324871 
        3.44008       0.0310548        0.032118 
        3.45578       0.0306658       0.0317544 
        3.47153       0.0303887       0.0313956 
        3.48724       0.0299614        0.031043 
        3.50292       0.0298466       0.0306966 
        3.51859        0.029393       0.0303557 
        3.53431       0.0290011       0.0300189 
        3.55007       0.0287759       0.0296863 
        3.56577       0.0284886       0.0293602 
        3.58146       0.0281242        0.029039 
        3.59719       0.0279341        0.028722 
        3.61292       0.0275414       0.0284097 
        3.62859       0.0272535       0.0281033 
        3.64429        0.027036       0.0278008 
        3.66003       0.0267854       0.0275019 
        3.67578       0.0265299       0.0272074 
        3.69146       0.0262708       0.0269184 
        3.70712       0.0260357       0.0266341 
        3.72284       0.0257189       0.0263529 
        3.73853        0.025505       0.0260762 
        3.75422       0.0252029       0.0258033 
        3.76993       0.0250453       0.0255342 
        3.78564       0.0247539       0.0252689 
        3.80137       0.0245452       0.0250071 
        3.81707       0.0242842       0.0247494 
        3.83279       0.0240224       0.0244952 
        3.84853        0.023817       0.0242442 
        3.86424       0.0236701       0.0239972 
        3.87992        0.023477       0.0237539 
        3.89561       0.0231733       0.0235141 
        3.91134       0.0230165        0.023277 
        3.92704       0.0227958       0.0230435 
        3.94273       0.0225942       0.0228135 
        3.95845       0.0223849       0.0225861 
        3.97418       0.0221906       0.0223618 
        3.98988       0.0218857       0.0221409 
        4.00554       0.0217992       0.0219235 
        4.02125       0.0215095       0.0217084 
        4.03698       0.0212417       0.0214959 
        4.05268       0.0210431       0.0212867 
        4.06839       0.0208026       0.0210801 
         4.0841       0.0204647       0.0208764 
        4.09983       0.0202152        0.020675 
        4.11555        0.020022       0.0204764 
        4.13124       0.0197411        0.020281 
        4.14693       0.0195563       0.0200879 
        4.16266       0.0192929       0.0198969 
        4.17839       0.0190831       0.0197085 
        4.19408       0.0188743       0.0195229 
        4.20977       0.0186567       0.0193397 
        4.22551       0.0184701       0.0191583 
        4.24123       0.0182633       0.0189795 
        4.25691       0.0181496       0.0188035 
        4.27259       0.0179224       0.0186296 
        4.28831       0.0178157       0.0184576 
        4.30404       0.0176049       0.0182876 
        4.31974       0.0174817       0.0181201 
        4.33543        0.017336       0.0179548 
        4.35116       0.0171277       0.0177911 
        4.36688       0.0171037       0.0176296 
        4.38255       0.0169066       0.0174706 
        4.39825       0.0169144       0.0173133 
        4.41398        0.016775       0.0171576 
         4.4297       0.0166818        0.017004 
        4.44541        0.016538       0.0168523 
        4.46111       0.0163949       0.0167025 
        4.47683       0.0164408       0.0165545 
        4.49251       0.0163088       0.0164085 
        4.50819       0.0163147       0.0162644 
         4.5239       0.0161606       0.0161218 
        4.53962       0.0161733       0.0159807 
        4.55535       0.0161087       0.0158412 
        4.57106        0.016114       0.0157036 
        4.58678       0.0160313       0.0155676 
         4.6025        0.016053       0.0154332 
        4.61821       0.0160447       0.0153004 
        4.63391       0.0160258       0.0151693 
         4.6496       0.0159992       0.0150398 
        4.66532       0.0159775       0.0149116 
        4.68103       0.0160085        0.014785 
        4.69673       0.0159976         0.01466 
        4.71241       0.0161041       0.0145365 
        4.72811       0.0160756       0.0144142 
        4.74384       0.0161505       0.0142932 
        4.75955       0.0161626       0.0141738 
        4.77525       0.0162167       0.0140558 
        4.79096       0.0162791        0.013939 
        4.80669       0.0163874       0.0138235 
         4.8224       0.0164126       0.0137094 
        4.83809        0.016531       0.0135967 
        4.85379       0.0166682       0.0134852 
         4.8695       0.0166946       0.0133749 
        4.88521        0.016803       0.0132659 
        4.90093       0.0168824        0.013158 
        4.91663        0.017044       0.0130515 
        4.93234       0.0171778        0.012946 
        4.94807       0.0172681       0.0128416 
        4.96377       0.0173602       0.0127385 
        4.97943       0.0176899       0.0126368 
        4.99514       0.0177565        0.012536 
        5.01086       0.0179573       0.0124362 
        5.02654       0.0180937       0.0123377 
        5.04227       0.0182332         0.01224 
          5.058       0.0184677       0.0121433 
        5.07371       0.0185737       0.0120478 
        5.08942       0.0188767       0.0119534 
        5.10513       0.0190472       0.0118599 
        5.12084       0.0193002       0.0117674 
        5.13656       0.0195321       0.0116759 
        5.15225       0.0197983       0.0115856 
        5.16796       0.0200723        0.011496 
        5.18369        0.020259       0.0114073 
         5.1994       0.0205646       0.0113197 
        5.21509       0.0207794       0.0112331 
        5.23079       0.0211667       0.0111473 
        5.24649       0.0214573       0.0110625 
        5.26217       0.0217548       0.0109786 
        5.27788       0.0220725       0.0108955 
        5.29359       0.0223105       0.0108132 
        5.30933       0.0227597       0.0107316 
        5.32504       0.0230989       0.0106511 
        5.34073       0.0235014       0.0105714 
        5.35646       0.0238983       0.0104924 
        5.37218       0.0242585       0.0104142 
        5.38789       0.0245551       0.0103369 
        5.40357       0.0251152       0.0102604 
        5.41929       0.0256072       0.0101846 
        5.43502       0.0259514       0.0101096 
         5.4507       0.0263891       0.0100354 
        5.46639       0.0268838      0.00996204 
        5.48212       0.0273366       0.0098892 
        5.49786        0.028017      0.00981701 
        5.51353       0.0285996       0.0097459 
        5.52921       0.0288663      0.00967541 
        5.54495       0.0295825      0.00960542 
        5.56066       0.0301976       0.0095362 
        5.57637       0.0307038      0.00946767 
        5.59207       0.0313178      0.00939987 
        5.60778        0.031856      0.00933271 
        5.62346       0.0324964      0.00926629 
        5.63916       0.0330864      0.00920047 
        5.65487       0.0339369      0.00913524 
         5.6706       0.0345333      0.00907058 
        5.68633       0.0353704      0.00900651 
        5.70203       0.0360763      0.00894319 
        5.71773        0.036944       0.0088805 
        5.73344        0.037402      0.00881837 
        5.74916       0.0383665      0.00875678 
        5.76486       0.0393407      0.00869586 
        5.78054       0.0402498      0.00863561 
        5.79626       0.0408846      0.00857577 
          5.812       0.0420589      0.00851643 
         5.8277       0.0426708      0.00845783 
        5.84339       0.0438026      0.00839977 
        5.85911       0.0449099      0.00834215 
        5.87484       0.0455946      0.00828509 
        5.89053       0.0469561      0.00822866 
        5.90623       0.0477669      0.00817274 
        5.92195       0.0491998      0.00811724 
        5.93767       0.0504329      0.00806229 
        5.95336       0.0512042      0.00800793 
        5.96905       0.0524923       0.0079541 
        5.98476       0.0534242      0.00790068 
        6.00048       0.0553831      0.00784774 
        6.01617        0.056288      0.00779535 
        6.03185       0.0575066      0.00774351 
        6.04756       0.0591714      0.00769201 
        6.06331       0.0608107      0.00764087 
        6.07903       0.0619239       0.0075903 
        6.09473       0.0637501      0.00754024 
        6.11044       0.0653314      0.00749058 
        6.12616       0.0667359      0.00744138 
        6.14186       0.0683203      0.00739267 
        6.15755       0.0700087      0.00734439 
        6.17326        0.071798      0.00729652 
        6.18898       0.0739369      0.00724904 
        6.20467       0.0760404      0.00720207 
        6.22036       0.0776609      0.00715552 
         6.2361       0.0796604      0.00710926 
         6.2518       0.0819148      0.00706348 
        6.26748       0.0829676       0.0070182 
        6.28319       0.0861977       0.0069732 
        6.29893       0.0876683      0.00692855 
        6.31463       0.0906407      0.00688437 
        6.33033       0.0925319      0.00684059 
        6.34604       0.0953908      0.00679715 
        6.36177       0.0971057      0.00675406 
        6.37747        0.100035      0.00671141 
