# k  (h/Mpc)    Pcb(k)  (Mpc/h)^3    Pcb_linear(k) (Mpc/h)^3   ShotnoiseSubtracted = true
      0.0200456         24714.7         25341.3 
      0.0350414         18796.2         19870.1 
      0.0492313         15190.8         15743.3 
      0.0637834         12947.9         12801.8 
      0.0800726         9832.44         9670.52 
       0.096163         7207.01         7606.48 
       0.111083         6059.87         6438.87 
       0.126058         5379.43         5352.54 
       0.142273         4560.36         4355.56 
       0.158546         4218.27         3710.43 
        0.17375         3432.64          3228.2 
       0.188953         3321.17         2775.27 
       0.204907         3110.32         2402.39 
       0.220756         2740.86         2123.33 
        0.23588         2471.83         1885.98 
         0.2514         2168.14         1671.13 
       0.267535         2177.26         1490.36 
       0.283568         1976.66         1339.22 
       0.299022         1883.04         1209.35 
       0.314451         1792.62         1096.47 
       0.330372         1638.84         996.957 
       0.346141         1616.33         910.106 
       0.361624         1548.79          834.13 
       0.377134         1449.21         766.937 
       0.392932         1390.48         706.388 
       0.408854         1364.88         651.794 
       0.424564         1259.35         603.438 
       0.440253         1232.85         560.155 
       0.455999         1216.45          521.02 
       0.471626         1165.92         485.822 
        0.48727         1124.62         453.834 
       0.502856         1080.02         424.847 
       0.518488         1082.55         398.318 
       0.534347         1013.02         373.708 
       0.550082         1000.96         351.349 
       0.565732         985.508          330.93 
       0.581496         940.414         312.006 
       0.597222         916.884         294.602 
       0.612804         904.804         278.672 
       0.628434         881.666         263.882 
       0.644267         857.736         249.998 
       0.660051          838.91         237.154 
       0.675724         831.196         225.296 
       0.691403         806.019         214.248 
       0.707174         779.551         203.885 
       0.722871         761.946         194.253 
        0.73838         748.838         185.351 
       0.754018         738.094         176.941 
       0.769845         723.854         168.964 
        0.78569          713.23         161.472 
       0.801365         693.085         154.509 
       0.817031         681.449         147.962 
       0.832809         671.098         141.754 
       0.848511         655.437          135.93 
       0.864097         635.325         130.475 
       0.879701         625.924         125.315 
       0.895507         624.589         120.374 
       0.911279         611.734          115.71 
        0.92691         601.311         111.334 
       0.942635         583.293          107.16 
       0.958396         571.832         103.192 
       0.974128         566.163         99.4336 
       0.989692         558.683         95.9002 
        1.00528         539.143         92.5341 
        1.02113         539.336         89.2777 
        1.03692         525.803         86.1908 
        1.05264         517.502         83.2648 
        1.06832         506.289         80.4798 
        1.08405          500.07         77.8155 
        1.09979         492.389         75.2707 
        1.11537         483.943         72.8655 
        1.13105         477.428         70.5515 
        1.14679         465.485         68.3295 
        1.16256         455.168         66.1993 
        1.17828         454.081         64.1672 
        1.19395         444.723         62.2277 
         1.2097         432.435         60.3587 
        1.22537         426.884         58.5759 
          1.241         419.286         56.8707 
        1.25666         414.517         55.2293 
        1.27241          406.62         53.6453 
        1.28819         396.988         52.1209 
        1.30392         392.827         50.6605 
        1.31957         385.407         49.2626 
        1.33529         382.723         47.9126 
        1.35108         373.367         46.6079 
        1.36674         367.497         45.3614 
         1.3824         363.305         44.1617 
        1.39811         355.625         43.0016 
        1.41389         351.785         41.8788 
        1.42964         347.728         40.7981 
        1.44531         343.874          39.761 
        1.46101         334.618         38.7578 
        1.47667         329.154         37.7923 
        1.49229         326.399         36.8624 
        1.50793         316.652         35.9628 
        1.52367          316.37         35.0875 
        1.53953         307.773         34.2356 
        1.55526         306.328         33.4189 
        1.57092         303.428         32.6322 
        1.58662         297.364          31.869 
        1.60235         291.811         31.1289 
        1.61809         287.697         30.4119 
        1.63369         283.568          29.724 
        1.64941         277.255         29.0525 
        1.66519         275.497         28.3993 
        1.68085         272.659         27.7709 
        1.69652         268.215         27.1614 
        1.71228         261.011         26.5668 
        1.72806         257.896         25.9895 
        1.74368         253.761         25.4352 
        1.75933         251.626          24.896 
        1.77505         247.626           24.37 
        1.79081         244.813         23.8582 
         1.8065         239.603         23.3634 
        1.82218         236.753         22.8831 
        1.83797         235.456          22.413 
        1.85367         230.855         21.9587 
        1.86928         226.381         21.5198 
        1.88497         224.705         21.0905 
        1.90073         220.461         20.6714 
        1.91647         218.094          20.264 
        1.93218         214.532         19.8685 
        1.94787          211.38         19.4842 
        1.96363         208.165         19.1085 
        1.97935         205.063         18.7435 
        1.99499         202.807         18.3901 
        2.01064         199.445         18.0453 
         2.0264         198.009         17.7073 
        2.04216         195.554          17.378 
        2.05781         192.166         17.0593 
        2.07353          189.23         16.7474 
        2.08928         185.527         16.4426 
        2.10499         184.066         16.1462 
        2.12065         181.931         15.8581 
        2.13633         179.204         15.5767 
        2.15211         176.553         15.3004 
        2.16785          175.17         15.0315 
        2.18349         172.665         14.7708 
        2.19916         169.853         14.5157 
        2.21489         167.903         14.2659 
        2.23063         165.783         14.0217 
         2.2463         162.696         13.7844 
        2.26194         161.109         13.5531 
        2.27765         158.408          13.326 
        2.29341         156.477         13.1035 
        2.30914         154.434         12.8866 
        2.32486         153.404         12.6746 
        2.34061         150.446         12.4671 
        2.35635         149.284         12.2645 
        2.37203          147.28          12.067 
        2.38768         144.736         11.8744 
        2.40339         143.077         11.6852 
        2.41914          141.63         11.4997 
        2.43483         139.985         11.3189 
         2.4505         138.425         11.1423 
        2.46622         136.491         10.9688 
        2.48195         134.677         10.7991 
        2.49759         133.656         10.6338 
        2.51328         132.294         10.4716 
        2.52906         130.219         10.3117 
        2.54479         128.362         10.1558 
        2.56049         126.559         10.0034 
        2.57618         125.787         9.85425 
        2.59189         123.851         9.70793 
        2.60758         122.012         9.56482 
        2.62325         120.988         9.42476 
        2.63898          119.49         9.28703 
        2.65468         118.151         9.15233 
        2.67044         116.351         9.01974 
        2.68618          115.59         8.89008 
        2.70184         113.802         8.76348 
        2.71755         112.857         8.63904 
        2.73329         111.045         8.51682 
        2.74897         110.056         8.39737 
        2.76462         108.646         8.28048 
        2.78034         107.665         8.16533 
        2.79607         105.988         8.05225 
        2.81179         105.441         7.94144 
        2.82749         104.132         7.83284 
        2.84321         102.133         7.72615 
        2.85893          101.09         7.62149 
        2.87462         100.226         7.51894 
        2.89033         98.9087         7.41818 
        2.90605         97.9389         7.31919 
        2.92176         96.5566         7.22205 
        2.93747         95.5427         7.12673 
        2.95318         94.9832          7.0331 
        2.96891         93.5858         6.94112 
        2.98456         92.6833         6.85119 
        3.00023         91.7133         6.76272 
        3.01596         90.4173         6.67554 
        3.03164         89.6015         6.59015 
        3.04738         88.8538           6.506 
         3.0631         87.5941         6.42335 
        3.07883         86.4301         6.34213 
        3.09456         85.4976         6.26233 
        3.11026          85.091         6.18403 
        3.12596          83.982         6.10707 
        3.14163         82.8899          6.0316 
        3.15734          82.069         5.95723 
        3.17308         81.3729         5.88394 
        3.18879         80.1919         5.81208 
        3.20447         79.4903         5.74152 
         3.2202         78.6788         5.67192 
         3.2359         77.8998         5.60359 
        3.25157         77.1843         5.53656 
        3.26729         76.2064         5.47041 
        3.28304         75.5484         5.40522 
        3.29877         74.7934         5.34118 
        3.31446         74.0779         5.27831 
        3.33014         73.2188         5.21651 
        3.34585         72.5367         5.15561 
        3.36158         71.5893         5.09559 
        3.37727         70.8343         5.03671 
        3.39294         70.2186         4.97881 
        3.40867         69.5066         4.92162 
        3.42439         68.6524         4.86536 
        3.44008         67.9173         4.81008 
        3.45578         67.1923         4.75563 
        3.47153         66.8217         4.70189 
        3.48724         66.1812         4.64908 
        3.50292         65.5723         4.59721 
        3.51859         64.9499         4.54615 
        3.53431         64.3115         4.49571 
        3.55007         63.5736         4.44591 
        3.56577         62.7063         4.39706 
        3.58146         62.2831         4.34897 
        3.59719         61.6571         4.30148 
        3.61292         61.1846         4.25472 
        3.62859         60.4797         4.20883 
        3.64429         59.7566         4.16353 
        3.66003          59.279         4.11876 
        3.67578         58.5761         4.07466 
        3.69146         58.1807         4.03138 
        3.70712         57.5625          3.9888 
        3.72284         57.0442         3.94668 
        3.73853         56.4467         3.90524 
        3.75422         55.7624         3.86438 
        3.76993         55.5791         3.82407 
        3.78564         54.8208         3.78435 
        3.80137         54.3337         3.74513 
        3.81707         53.8102         3.70655 
        3.83279         53.2809         3.66848 
        3.84853         52.7797         3.63088 
        3.86424         52.3386         3.59388 
        3.87992         51.8561         3.55746 
        3.89561         51.3713         3.52153 
        3.91134         50.8355         3.48603 
        3.92704         50.6169         3.45106 
        3.94273         50.0025         3.41661 
        3.95845         49.4941         3.38256 
        3.97418         49.0247         3.34897 
        3.98988         48.5689         3.31588 
        4.00554          48.231         3.28332 
        4.02125         47.6579         3.25111 
        4.03698          47.262         3.21929 
        4.05268         46.6974         3.18796 
        4.06839         46.3655         3.15702 
         4.0841         46.0007         3.12651 
        4.09983          45.553         3.09635 
        4.11555         45.0985         3.06661 
        4.13124         44.6559         3.03733 
        4.14693         44.3643         3.00842 
        4.16266         43.9593         2.97981 
        4.17839         43.5946         2.95159 
        4.19408         43.1452         2.92381 
        4.20977          42.734         2.89636 
        4.22551         42.2882         2.86921 
        4.24123         42.0288         2.84243 
        4.25691         41.7208         2.81606 
        4.27259         41.2046         2.79002 
        4.28831         40.9497         2.76426 
        4.30404         40.5539          2.7388 
        4.31974         40.2148         2.71371 
        4.33543         39.8544         2.68896 
        4.35116          39.507         2.66445 
        4.36688         39.2615         2.64025 
        4.38255         38.8572         2.61645 
        4.39825         38.5707         2.59289 
        4.41398         38.2423         2.56957 
         4.4297          37.839         2.54656 
        4.44541         37.5263         2.52384 
        4.46111          37.185         2.50142 
        4.47683          36.847         2.47925 
        4.49251          36.568         2.45739 
        4.50819         36.2813          2.4358 
         4.5239         36.0101         2.41444 
        4.53962          35.655         2.39331 
        4.55535         35.3492         2.37243 
        4.57106         35.1375         2.35182 
        4.58678         34.7288         2.33145 
         4.6025         34.5263         2.31132 
        4.61821         34.2327         2.29143 
        4.63391         33.9233          2.2718 
         4.6496         33.5278          2.2524 
        4.66532         33.2808         2.23321 
        4.68103         33.0488         2.21424 
        4.69673         32.7657         2.19552 
        4.71241         32.4699         2.17703 
        4.72811         32.3137         2.15872 
        4.74384         31.9448          2.1406 
        4.75955         31.7063         2.12271 
        4.77525          31.383         2.10504 
        4.79096         31.1648         2.08755 
        4.80669         30.9285         2.07024 
         4.8224         30.7527         2.05316 
        4.83809         30.4092         2.03628 
        4.85379         30.1585         2.01959 
         4.8695         29.9456         2.00306 
        4.88521         29.7342         1.98673 
        4.90093         29.4102         1.97058 
        4.91663         29.1865         1.95462 
        4.93234         28.9884         1.93882 
        4.94807         28.7639         1.92319 
        4.96377         28.5327         1.90776 
        4.97943         28.3084         1.89253 
        4.99514         28.1416         1.87743 
        5.01086         27.8842         1.86248 
        5.02654         27.6616         1.84773 
        5.04227         27.4249         1.83309 
          5.058         27.2177         1.81861 
        5.07371         26.9808         1.80431 
        5.08942         26.8415         1.79017 
        5.10513         26.6363         1.77617 
        5.12084         26.3765         1.76232 
        5.13656          26.234         1.74862 
        5.15225         25.9906         1.73509 
        5.16796         25.8019         1.72168 
        5.18369         25.5888         1.70839 
         5.1994         25.4102         1.69528 
        5.21509         25.2453         1.68231 
        5.23079         24.9527         1.66946 
        5.24649         24.7875         1.65675 
        5.26217         24.6081         1.64419 
        5.27788         24.4298         1.63174 
        5.29359         24.2005         1.61942 
        5.30933         24.0736          1.6072 
        5.32504         23.8553         1.59513 
        5.34073         23.6702          1.5832 
        5.35646         23.5029         1.57137 
        5.37218          23.336         1.55966 
        5.38789         23.1499         1.54808 
        5.40357         22.9286         1.53663 
        5.41929         22.8253         1.52528 
        5.43502         22.6856         1.51404 
         5.4507         22.4749         1.50293 
        5.46639         22.2734         1.49194 
        5.48212         22.1761         1.48104 
        5.49786         21.9598         1.47022 
        5.51353         21.8054         1.45957 
        5.52921         21.6226         1.44902 
        5.54495         21.5103         1.43854 
        5.56066          21.326         1.42817 
        5.57637         21.1675          1.4179 
        5.59207         20.9886         1.40775 
        5.60778         20.8526         1.39769 
        5.62346         20.6706         1.38775 
        5.63916         20.4903         1.37789 
        5.65487         20.4134         1.36812 
         5.6706         20.2173         1.35844 
        5.68633         20.0948         1.34884 
        5.70203         19.9426         1.33936 
        5.71773         19.7713         1.32997 
        5.73344         19.6464         1.32066 
        5.74916         19.5119         1.31144 
        5.76486         19.3764         1.30232 
        5.78054         19.2374         1.29329 
        5.79626          19.094         1.28433 
          5.812         18.9526         1.27544 
         5.8277         18.8629         1.26667 
        5.84339         18.6799         1.25797 
        5.85911         18.5264         1.24934 
        5.87484         18.4204          1.2408 
        5.89053          18.299         1.23235 
        5.90623         18.1312         1.22397 
        5.92195         18.0476         1.21566 
        5.93767         17.9216         1.20743 
        5.95336         17.8273         1.19929 
        5.96905         17.6035         1.19123 
        5.98476         17.5219         1.18323 
        6.00048         17.4319          1.1753 
        6.01617         17.2683         1.16745 
        6.03185         17.1514         1.15969 
        6.04756         17.0441         1.15198 
        6.06331          16.943         1.14432 
        6.07903         16.7938         1.13675 
        6.09473         16.6942         1.12925 
        6.11044         16.5461         1.12181 
        6.12616         16.4389         1.11444 
        6.14186           16.37         1.10715 
        6.15755         16.2774         1.09992 
        6.17326         16.0832         1.09275 
        6.18898         15.9851         1.08564 
        6.20467         15.9001          1.0786 
        6.22036         15.7771         1.07163 
         6.2361          15.675          1.0647 
         6.2518         15.5501         1.05785 
        6.26748         15.4447         1.05107 
        6.28319         15.3554         1.04433 
        6.29893         15.2564         1.03764 
        6.31463         15.1292         1.03102 
        6.33033         15.0048         1.02447 
        6.34604         14.9432         1.01796 
        6.36177         14.8381         1.01151 
        6.37747         14.7384         1.00512 
