# k  (h/Mpc)    Pcb(k)  (Mpc/h)^3    Pcb_linear(k) (Mpc/h)^3   ShotnoiseSubtracted = true
      0.0200456         3513.34         3552.24 
      0.0350414         2829.48         2785.31 
      0.0492313         2198.46         2206.83 
      0.0637834         1757.77          1794.5 
      0.0800726         1333.08         1355.57 
       0.096163         1085.16         1066.25 
       0.111083         924.703         902.575 
       0.126058          746.05         750.297 
       0.142273         613.275         610.544 
       0.158546         528.276         520.112 
        0.17375         467.017         452.515 
       0.188953         407.057         389.025 
       0.204907         341.604         336.757 
       0.220756         311.317          297.64 
        0.23588         277.255         264.369 
         0.2514         246.779         234.252 
       0.267535          229.67         208.913 
       0.283568         203.062         187.726 
       0.299022         189.219         169.522 
       0.314451         180.299         153.699 
       0.330372         158.501         139.749 
       0.346141         146.224         127.575 
       0.361624         136.358         116.925 
       0.377134         124.747         107.506 
       0.392932          121.09         99.0186 
       0.408854         112.193         91.3658 
       0.424564         107.224         84.5875 
       0.440253         97.7027         78.5203 
       0.455999         90.2122         73.0345 
       0.471626         86.0891         68.1005 
        0.48727         83.7945         63.6167 
       0.502856         77.5562         59.5533 
       0.518488         74.0701         55.8346 
       0.534347         70.0092         52.3848 
       0.550082         67.5726         49.2506 
       0.565732         65.4119         46.3885 
       0.581496          60.952         43.7357 
       0.597222         58.3617         41.2961 
       0.612804         56.3086         39.0631 
       0.628434         55.0784         36.9899 
       0.644267         52.1629         35.0436 
       0.660051         49.9283         33.2433 
       0.675724         48.1096         31.5811 
       0.691403          47.288         30.0324 
       0.707174         45.6918         28.5797 
       0.722871         44.1725         27.2297 
        0.73838         42.1588         25.9817 
       0.754018         40.1128         24.8029 
       0.769845         39.4207         23.6847 
        0.78569         38.0099         22.6345 
       0.801365          36.969         21.6584 
       0.817031         35.5861         20.7407 
       0.832809         34.9019         19.8704 
       0.848511         33.7831         19.0542 
       0.864097         32.9636         18.2895 
       0.879701         32.3702         17.5661 
       0.895507         31.1746         16.8735 
       0.911279         30.1842         16.2198 
        0.92691         29.6388         15.6063 
       0.942635         29.0308         15.0212 
       0.958396         28.3155         14.4651 
       0.974128         27.5538         13.9382 
       0.989692         26.5529         13.4429 
        1.00528         26.3368         12.9711 
        1.02113         25.5715         12.5146 
        1.03692         25.0794         12.0819 
        1.05264         24.5785         11.6717 
        1.06832         24.1217         11.2813 
        1.08405         23.4192         10.9079 
        1.09979         23.0752         10.5511 
        1.11537         22.4056          10.214 
        1.13105         22.0651         9.88962 
        1.14679         21.5178         9.57815 
        1.16256          21.192         9.27954 
        1.17828         20.8395          8.9947 
        1.19395         20.4987         8.72282 
         1.2097         19.9683         8.46084 
        1.22537         19.6598         8.21092 
          1.241         19.2909          7.9719 
        1.25666         19.0634         7.74182 
        1.27241         18.6897         7.51978 
        1.28819         18.0008          7.3061 
        1.30392         18.1823         7.10138 
        1.31957         17.6895         6.90543 
        1.33529         17.3821         6.71619 
        1.35108         17.1989         6.53331 
        1.36674         16.8317         6.35857 
         1.3824         16.5556         6.19041 
        1.39811         16.2556         6.02778 
        1.41389         16.0251         5.87039 
        1.42964         15.8248         5.71891 
        1.44531         15.5772         5.57353 
        1.46101         15.3531         5.43291 
        1.47667         15.1229         5.29757 
        1.49229          14.797         5.16722 
        1.50793         14.6582         5.04112 
        1.52367         14.4922         4.91843 
        1.53953         14.2274         4.79901 
        1.55526         14.0089         4.68452 
        1.57092         13.9532         4.57425 
        1.58662         13.7283         4.46727 
        1.60235         13.4977         4.36352 
        1.61809         13.3657         4.26302 
        1.63369         13.1168         4.16659 
        1.64941         12.9906         4.07245 
        1.66519         12.7724          3.9809 
        1.68085         12.5668         3.89281 
        1.69652         12.5589         3.80737 
        1.71228         12.3288         3.72402 
        1.72806         12.1207          3.6431 
        1.74368          12.016         3.56541 
        1.75933         11.9149         3.48982 
        1.77505         11.7084         3.41609 
        1.79081         11.5892         3.34435 
         1.8065          11.528         3.27499 
        1.82218         11.3791         3.20766 
        1.83797         11.2321         3.14176 
        1.85367         11.1126         3.07809 
        1.86928         10.9718         3.01656 
        1.88497         10.8623         2.95638 
        1.90073         10.7004         2.89763 
        1.91647         10.4685         2.84053 
        1.93218         10.4571         2.78509 
        1.94787         10.2749         2.73121 
        1.96363         10.2162         2.67855 
        1.97935         10.1472         2.62739 
        1.99499         10.0046         2.57785 
        2.01064         9.89648         2.52952 
         2.0264         9.74541         2.48213 
        2.04216         9.77896         2.43598 
        2.05781         9.63526          2.3913 
        2.07353         9.51047         2.34758 
        2.08928         9.35154         2.30485 
        2.10499         9.27507         2.26331 
        2.12065         9.24454         2.22292 
        2.13633         9.11433         2.18348 
        2.15211         9.01894         2.14474 
        2.16785         8.88486         2.10705 
        2.18349         8.85658         2.07051 
        2.19916         8.73927         2.03476 
        2.21489         8.67062         1.99973 
        2.23063         8.61228         1.96551 
         2.2463         8.47429         1.93224 
        2.26194         8.39691         1.89982 
        2.27765         8.31611         1.86799 
        2.29341         8.18974          1.8368 
        2.30914         8.20402         1.80639 
        2.32486         8.07488         1.77668 
        2.34061         8.02607         1.74759 
        2.35635         7.92649         1.71919 
        2.37203         7.86028         1.69151 
        2.38768          7.7825          1.6645 
        2.40339          7.7312         1.63798 
        2.41914         7.65634         1.61198 
        2.43483         7.60116         1.58663 
         2.4505         7.53077         1.56188 
        2.46622         7.42253         1.53757 
        2.48195         7.42871         1.51377 
        2.49759         7.27206          1.4906 
        2.51328          7.2588         1.46786 
        2.52906         7.17162         1.44545 
        2.54479         7.10183          1.4236 
        2.56049         7.06581         1.40223 
        2.57618         7.00866         1.38133 
        2.59189         6.99721         1.36082 
        2.60758         6.89398         1.34076 
        2.62325         6.82032         1.32112 
        2.63898         6.81273         1.30182 
        2.65468         6.71367         1.28294 
        2.67044         6.65784         1.26435 
        2.68618          6.5897         1.24617 
        2.70184         6.58142         1.22843 
        2.71755          6.4878         1.21099 
        2.73329          6.4241         1.19385 
        2.74897         6.39335         1.17711 
        2.76462         6.34618         1.16072 
        2.78034         6.29491         1.14458 
        2.79607         6.24324         1.12873 
        2.81179         6.18707          1.1132 
        2.82749         6.12454         1.09798 
        2.84321         6.08944         1.08302 
        2.85893         6.05124         1.06835 
        2.87462         6.00051         1.05397 
        2.89033         5.94631         1.03985 
        2.90605         5.90176         1.02597 
        2.92176         5.84163         1.01236 
        2.93747          5.8054        0.998995 
        2.95318         5.74485        0.985872 
        2.96891         5.70869        0.972978 
        2.98456         5.66665        0.960372 
        3.00023          5.6433        0.947971 
        3.01596         5.56198         0.93575 
        3.03164         5.52706         0.92378 
        3.04738         5.50651        0.911985 
         3.0631         5.46607        0.900399 
        3.07883         5.41871        0.889014 
        3.09456         5.34748        0.877828 
        3.11026         5.33496        0.866852 
        3.12596         5.28921        0.856064 
        3.14163         5.25434        0.845485 
        3.15734         5.21974         0.83506 
        3.17308         5.18633        0.824786 
        3.18879         5.15246        0.814713 
        3.20447         5.10394        0.804823 
         3.2202         5.06002        0.795066 
         3.2359         5.02369        0.785489 
        3.25157         4.99839        0.776092 
        3.26729         4.96104         0.76682 
        3.28304         4.92053        0.757682 
        3.29877         4.89502        0.748704 
        3.31446         4.86651        0.739892 
        3.33014         4.80906        0.731229 
        3.34585         4.79266        0.722692 
        3.36158         4.75225        0.714278 
        3.37727         4.71883        0.706025 
        3.39294         4.68984        0.697909 
        3.40867         4.66189        0.689892 
        3.42439         4.59638        0.682006 
        3.44008          4.5805        0.674258 
        3.45578         4.54924        0.666624 
        3.47153         4.51505        0.659092 
        3.48724         4.49481        0.651689 
        3.50292         4.46421        0.644418 
        3.51859         4.42849        0.637261 
        3.53431         4.39925         0.63019 
        3.55007         4.38276         0.62321 
        3.56577         4.32326        0.616362 
        3.58146         4.30689         0.60962 
        3.59719         4.28686        0.602964 
        3.61292         4.26135        0.596409 
        3.62859         4.22937        0.589977 
        3.64429         4.19191        0.583627 
        3.66003          4.1761        0.577351 
        3.67578         4.14991         0.57117 
        3.69146         4.11184        0.565102 
        3.70712         4.09492        0.559134 
        3.72284         4.06478        0.553229 
        3.73853         4.03394         0.54742 
        3.75422         3.99943        0.541693 
        3.76993         3.98671        0.536042 
        3.78564         3.96115        0.530474 
        3.80137         3.92551        0.524977 
        3.81707         3.90344        0.519569 
        3.83279         3.87607        0.514232 
        3.84853         3.84929        0.508962 
        3.86424         3.83034        0.503776 
        3.87992         3.80185         0.49867 
        3.89561          3.7727        0.493634 
        3.91134         3.74813        0.488658 
        3.92704         3.71914        0.483756 
        3.94273         3.70284        0.478926 
        3.95845         3.67043        0.474153 
        3.97418         3.66101        0.469444 
        3.98988          3.6358        0.464806 
        4.00554         3.60418        0.460243 
        4.02125         3.57595        0.455728 
        4.03698         3.55745        0.451266 
        4.05268         3.52915        0.446875 
        4.06839         3.50683        0.442538 
         4.0841         3.48498        0.438261 
        4.09983         3.46192        0.434034 
        4.11555         3.43864        0.429864 
        4.13124         3.42211        0.425761 
        4.14693          3.4026        0.421708 
        4.16266         3.36886        0.417698 
        4.17839          3.3505        0.413742 
        4.19408         3.33289        0.409847 
        4.20977         3.30945           0.406 
        4.22551         3.28569        0.402194 
        4.24123         3.25955         0.39844 
        4.25691         3.24349        0.394744 
        4.27259          3.2253        0.391094 
        4.28831         3.19139        0.387483 
        4.30404         3.18581        0.383914 
        4.31974         3.16389        0.380397 
        4.33543          3.1359        0.376927 
        4.35116         3.12304        0.373491 
        4.36688         3.10383          0.3701 
        4.38255         3.08736        0.366763 
        4.39825         3.06039        0.363461 
        4.41398         3.05296        0.360192 
         4.4297          3.0253        0.356967 
        4.44541          3.0099        0.353782 
        4.46111         2.97848        0.350638 
        4.47683         2.96398        0.347531 
        4.49251          2.9553        0.344467 
        4.50819         2.93032        0.341441 
         4.5239         2.91191        0.338447 
        4.53962         2.89511        0.335485 
        4.55535         2.87522        0.332557 
        4.57106         2.85822        0.329668 
        4.58678          2.8386        0.326813 
         4.6025         2.82893        0.323991 
        4.61821          2.8141        0.321203 
        4.63391         2.78997        0.318451 
         4.6496         2.77876        0.315733 
        4.66532         2.76251        0.313042 
        4.68103         2.73698        0.310384 
        4.69673           2.729        0.307759 
        4.71241         2.71207        0.305167 
        4.72811         2.69064          0.3026 
        4.74384          2.6841         0.30006 
        4.75955         2.66424        0.297553 
        4.77525         2.64305        0.295076 
        4.79096         2.63419        0.292624 
        4.80669         2.62174        0.290198 
         4.8224         2.60205        0.287803 
        4.83809         2.59126        0.285438 
        4.85379          2.5694        0.283097 
         4.8695         2.55825        0.280781 
        4.88521         2.54424        0.278492 
        4.90093         2.53208        0.276228 
        4.91663         2.51493        0.273991 
        4.93234         2.50556        0.271777 
        4.94807         2.49265        0.269585 
        4.96377         2.47189        0.267422 
        4.97943         2.46467        0.265287 
        4.99514         2.44322         0.26317 
        5.01086          2.4289        0.261074 
        5.02654         2.41982        0.259007 
        5.04227         2.40845        0.256955 
          5.058          2.3973        0.254925 
        5.07371         2.38401        0.252921 
        5.08942         2.36765        0.250939 
        5.10513         2.35784        0.248977 
        5.12084         2.33905        0.247035 
        5.13656         2.33128        0.245114 
        5.15225         2.31185        0.243217 
        5.16796         2.30173        0.241337 
        5.18369          2.2901        0.239476 
         5.1994         2.27748        0.237637 
        5.21509         2.26847        0.235819 
        5.23079         2.25843        0.234018 
        5.24649         2.24513        0.232237 
        5.26217         2.23326        0.230476 
        5.27788         2.22275        0.228731 
        5.29359         2.21012        0.227003 
        5.30933         2.19982        0.225291 
        5.32504         2.18698        0.223599 
        5.34073         2.16981        0.221927 
        5.35646         2.16286        0.220268 
        5.37218         2.15371        0.218626 
        5.38789         2.13763        0.217003 
        5.40357         2.13042        0.215399 
        5.41929         2.12257        0.213807 
        5.43502         2.11057        0.212231 
         5.4507          2.0944        0.210675 
        5.46639         2.08797        0.209134 
        5.48212         2.07489        0.207605 
        5.49786         2.06444         0.20609 
        5.51353          2.0554        0.204597 
        5.52921         2.04148        0.203117 
        5.54495         2.03612        0.201648 
        5.56066         2.02386        0.200195 
        5.57637         2.01271        0.198756 
        5.59207         2.00781        0.197333 
        5.60778         1.99556        0.195923 
        5.62346         1.97825        0.194529 
        5.63916         1.97481        0.193147 
        5.65487         1.96131        0.191777 
         5.6706          1.9566         0.19042 
        5.68633         1.94775        0.189075 
        5.70203         1.93576        0.187746 
        5.71773         1.92721         0.18643 
        5.73344         1.91696        0.185125 
        5.74916         1.90711        0.183832 
        5.76486         1.89628        0.182553 
        5.78054         1.88678        0.181289 
        5.79626         1.87978        0.180032 
          5.812         1.86952        0.178787 
         5.8277         1.86458        0.177556 
        5.84339         1.85141        0.176338 
        5.85911         1.84546        0.175128 
        5.87484         1.83262         0.17393 
        5.89053         1.83143        0.172745 
        5.90623         1.82195        0.171571 
        5.92195         1.81029        0.170406 
        5.93767         1.80203        0.169253 
        5.95336         1.79771        0.168112 
        5.96905         1.78609        0.166981 
        5.98476         1.77972         0.16586 
        6.00048         1.76887        0.164749 
        6.01617         1.75892        0.163649 
        6.03185         1.75193        0.162561 
        6.04756         1.74613        0.161479 
        6.06331          1.7383        0.160406 
        6.07903          1.7292        0.159344 
        6.09473         1.71868        0.158293 
        6.11044         1.71753        0.157251 
        6.12616         1.70413        0.156218 
        6.14186          1.6972        0.155195 
        6.15755         1.68849        0.154182 
        6.17326         1.68343        0.153177 
        6.18898          1.6753         0.15218 
        6.20467         1.67033        0.151194 
        6.22036         1.66151        0.150217 
         6.2361         1.65664        0.149246 
         6.2518         1.64782        0.148285 
        6.26748         1.64127        0.147334 
        6.28319         1.63248        0.146389 
        6.29893         1.62481        0.145452 
        6.31463         1.61997        0.144525 
        6.33033         1.61009        0.143605 
        6.34604         1.60415        0.142694 
        6.36177         1.59849        0.141789 
        6.37747         1.59278        0.140894 
