# k  (h/Mpc)    Pcb(k)  (Mpc/h)^3    Pcb_linear(k) (Mpc/h)^3   ShotnoiseSubtracted = true
      0.0200456         21969.7         22318.9 
      0.0350414           17971         17500.3 
      0.0492313         13431.6         13865.6 
      0.0637834         10607.2           11275 
      0.0800726         8012.78         8517.16 
       0.096163         6829.15         6699.29 
       0.111083         5820.01         5670.94 
       0.126058         4634.18         4714.16 
       0.142273         3990.98         3836.09 
       0.158546         3393.07          3267.9 
        0.17375         3083.94         2843.18 
       0.188953         2891.34         2444.27 
       0.204907         2489.27         2115.87 
       0.220756         2265.33         1870.09 
        0.23588         2038.54         1661.05 
         0.2514         1852.39         1471.82 
       0.267535         1778.66         1312.61 
       0.283568          1597.4          1179.5 
       0.299022         1527.53         1065.12 
       0.314451         1587.52         965.698 
       0.330372         1420.58         878.055 
       0.346141         1306.41         801.562 
       0.361624          1253.2         734.647 
       0.377134         1203.36         675.468 
       0.392932         1149.23         622.141 
       0.408854         1101.27         574.058 
       0.424564         1080.93         531.469 
       0.440253         1009.46         493.348 
       0.455999         966.654          458.88 
       0.471626         975.392          427.88 
        0.48727         926.344         399.708 
       0.502856         893.662         374.178 
       0.518488         865.257         350.812 
       0.534347         832.229         329.137 
       0.550082          797.06         309.445 
       0.565732         782.891         291.462 
       0.581496         764.242         274.794 
       0.597222          751.74         259.466 
       0.612804         734.289         245.436 
       0.628434         703.977          232.41 
       0.644267         685.394         220.182 
       0.660051         677.219          208.87 
       0.675724           664.7         198.426 
       0.691403         641.436         188.695 
       0.707174         624.343         179.568 
       0.722871         616.154         171.086 
        0.73838         603.925         163.245 
       0.754018         591.226         155.838 
       0.769845         581.203         148.812 
        0.78569         567.336         142.214 
       0.801365         550.033         136.081 
       0.817031         543.957         130.315 
       0.832809         535.027         124.847 
       0.848511          524.77         119.718 
       0.864097         517.252         114.914 
       0.879701         516.069         110.369 
       0.895507         495.301         106.017 
       0.911279         490.732          101.91 
        0.92691         481.536         98.0553 
       0.942635         475.815         94.3794 
       0.958396         462.931         90.8849 
       0.974128         455.755         87.5746 
       0.989692          443.09         84.4626 
        1.00528         439.299          81.498 
        1.02113         430.158         78.6299 
        1.03692         424.041         75.9112 
        1.05264         416.941         73.3341 
        1.06832         408.111         70.8813 
        1.08405         406.161         68.5347 
        1.09979         396.426         66.2935 
        1.11537         386.951         64.1751 
        1.13105         383.111         62.1371 
        1.14679         375.785         60.1801 
        1.16256         372.207          58.304 
        1.17828         366.555         56.5143 
        1.19395         357.689          54.806 
         1.2097         353.913           53.16 
        1.22537         346.809         51.5898 
          1.241         341.945         50.0879 
        1.25666         336.889         48.6424 
        1.27241         332.475         47.2473 
        1.28819         325.076         45.9047 
        1.30392         323.499         44.6184 
        1.31957         315.832         43.3873 
        1.33529         311.763         42.1983 
        1.35108         309.764         41.0492 
        1.36674          301.84         39.9513 
         1.3824         297.358         38.8947 
        1.39811         293.503         37.8729 
        1.41389         287.966         36.8841 
        1.42964          283.64         35.9323 
        1.44531         278.236         35.0188 
        1.46101         273.539         34.1353 
        1.47667         271.559          33.285 
        1.49229         267.135          32.466 
        1.50793         262.607         31.6737 
        1.52367         258.029         30.9028 
        1.53953         253.893         30.1525 
        1.55526         250.675         29.4331 
        1.57092         247.157         28.7403 
        1.58662          242.67         28.0682 
        1.60235         239.344         27.4163 
        1.61809         237.353         26.7848 
        1.63369         232.874         26.1789 
        1.64941         229.659         25.5875 
        1.66519         225.863         25.0122 
        1.68085         221.714         24.4588 
        1.69652          219.41          23.922 
        1.71228         215.836         23.3983 
        1.72806          212.69         22.8899 
        1.74368         210.147         22.4017 
        1.75933         208.092         21.9268 
        1.77505         204.489         21.4635 
        1.79081         202.032         21.0128 
         1.8065         199.725          20.577 
        1.82218         195.036         20.1539 
        1.83797         193.446         19.7399 
        1.85367         190.226         19.3398 
        1.86928         187.101         18.9532 
        1.88497         184.991         18.5751 
        1.90073         183.161          18.206 
        1.91647         179.879         17.8472 
        1.93218         177.604         17.4989 
        1.94787         174.093         17.1604 
        1.96363         173.263         16.8295 
        1.97935         170.769          16.508 
        1.99499          168.46         16.1968 
        2.01064          164.92         15.8932 
         2.0264         163.837         15.5954 
        2.04216         161.205         15.3054 
        2.05781         159.194         15.0247 
        2.07353         158.176           14.75 
        2.08928         155.794         14.4815 
        2.10499         153.234         14.2205 
        2.12065         151.137         13.9667 
        2.13633         149.052         13.7189 
        2.15211         147.138         13.4755 
        2.16785         145.524         13.2388 
        2.18349          143.73         13.0091 
        2.19916         141.377         12.7845 
        2.21489         139.988         12.5644 
        2.23063         138.217         12.3494 
         2.2463         136.081         12.1404 
        2.26194          134.16         11.9367 
        2.27765         132.513         11.7367 
        2.29341         131.128         11.5407 
        2.30914         129.534         11.3496 
        2.32486         127.456          11.163 
        2.34061          125.46         10.9802 
        2.35635         124.586         10.8018 
        2.37203         123.167         10.6279 
        2.38768         121.971         10.4581 
        2.40339         119.464         10.2915 
        2.41914         118.062         10.1282 
        2.43483         116.752         9.96893 
         2.4505         115.686         9.81338 
        2.46622         113.484         9.66063 
        2.48195         112.907         9.51111 
        2.49759          110.65         9.36556 
        2.51328         109.739         9.22269 
        2.52906         108.588         9.08189 
        2.54479         107.059         8.94455 
        2.56049         105.875         8.81033 
        2.57618         104.515         8.67898 
        2.59189         103.535         8.55011 
        2.60758         102.193         8.42406 
        2.62325          100.74         8.30071 
        2.63898         99.6343          8.1794 
        2.65468         98.2201         8.06077 
        2.67044         97.5918         7.94399 
        2.68618         95.9761         7.82979 
        2.70184         95.0872          7.7183 
        2.71755         93.7767          7.6087 
        2.73329         92.5469         7.50106 
        2.74897         91.7052         7.39586 
        2.76462         90.9568          7.2929 
        2.78034         89.7557         7.19149 
        2.79607         88.5216         7.09189 
        2.81179         87.7245          6.9943 
        2.82749         86.8359         6.89865 
        2.84321         85.5148         6.80469 
        2.85893         84.3258         6.71251 
        2.87462          83.529         6.62219 
        2.89033         82.6577         6.53345 
        2.90605         81.5553         6.44626 
        2.92176          80.741         6.36071 
        2.93747         79.8545         6.27675 
        2.95318         78.8621          6.1943 
        2.96891         78.1102         6.11328 
        2.98456         77.0771         6.03408 
        3.00023         76.3865         5.95616 
        3.01596         75.7062         5.87938 
        3.03164         74.9216         5.80417 
        3.04738         74.1583         5.73006 
         3.0631         73.2058         5.65727 
        3.07883         72.5383         5.58573 
        3.09456         71.6397         5.51545 
        3.11026         70.8961         5.44649 
        3.12596         69.9848         5.37871 
        3.14163         69.3743         5.31224 
        3.15734         68.5688         5.24674 
        3.17308         67.8954         5.18219 
        3.18879         67.3193          5.1189 
        3.20447         66.4887         5.05675 
         3.2202         65.5506         4.99545 
         3.2359         65.0985         4.93528 
        3.25157         64.5383         4.87624 
        3.26729           63.66         4.81798 
        3.28304         63.1022         4.76056 
        3.29877         62.3301         4.70416 
        3.31446         61.6455         4.64879 
        3.33014         61.0511         4.59436 
        3.34585         60.4333         4.54072 
        3.36158         59.9018         4.48786 
        3.37727         59.2028           4.436 
        3.39294         58.6635         4.38501 
        3.40867         57.8891         4.33464 
        3.42439         57.3887         4.28509 
        3.44008         56.7332          4.2364 
        3.45578         56.2271         4.18844 
        3.47153          55.655         4.14112 
        3.48724         55.2022         4.09461 
        3.50292         54.5836         4.04892 
        3.51859          54.009         4.00395 
        3.53431         53.4511         3.95953 
        3.55007         52.9296         3.91567 
        3.56577         52.3579         3.87264 
        3.58146         51.9082         3.83028 
        3.59719         51.4045         3.78846 
        3.61292          50.906         3.74728 
        3.62859         50.3237         3.70686 
        3.64429          49.931         3.66697 
        3.66003         49.3083         3.62753 
        3.67578         48.8436          3.5887 
        3.69146         48.4061         3.55057 
        3.70712         47.9353         3.51307 
        3.72284         47.4875         3.47598 
        3.73853         47.0925         3.43948 
        3.75422         46.6575         3.40349 
        3.76993         46.2372         3.36799 
        3.78564         45.7792         3.33301 
        3.80137         45.2076         3.29846 
        3.81707         44.9419         3.26448 
        3.83279         44.5488         3.23095 
        3.84853         44.0887         3.19784 
        3.86424         43.5856         3.16526 
        3.87992         43.1627         3.13317 
        3.89561          42.883         3.10154 
        3.91134         42.3824         3.07027 
        3.92704           42.11         3.03947 
        3.94273         41.5773         3.00912 
        3.95845         41.2636         2.97914 
        3.97418         40.8476         2.94955 
        3.98988         40.5023         2.92041 
        4.00554         40.0122         2.89174 
        4.02125         39.7453         2.86337 
        4.03698         39.3317         2.83534 
        4.05268         38.9703         2.80774 
        4.06839         38.6758          2.7805 
         4.0841         38.3498         2.75362 
        4.09983         38.0158         2.72706 
        4.11555         37.6138         2.70087 
        4.13124         37.2056         2.67508 
        4.14693         37.0041         2.64962 
        4.16266         36.6112         2.62442 
        4.17839         36.1852         2.59957 
        4.19408         35.9067          2.5751 
        4.20977         35.6553         2.55093 
        4.22551         35.2864         2.52701 
        4.24123         34.9776         2.50342 
        4.25691         34.6521          2.4802 
        4.27259         34.3722         2.45727 
        4.28831         34.0363         2.43458 
        4.30404         33.7189         2.41215 
        4.31974         33.4357         2.39006 
        4.33543         33.1377         2.36826 
        4.35116         32.8361         2.34667 
        4.36688          32.565         2.32536 
        4.38255         32.3325          2.3044 
        4.39825         32.0904         2.28365 
        4.41398         31.8559         2.26311 
         4.4297         31.4848         2.24285 
        4.44541         31.2415         2.22284 
        4.46111         31.0097         2.20308 
        4.47683         30.7806         2.18356 
        4.49251         30.4745         2.16431 
        4.50819         30.1766         2.14529 
         4.5239         29.8943         2.12648 
        4.53962         29.6531         2.10787 
        4.55535         29.3818         2.08948 
        4.57106         29.1663         2.07133 
        4.58678         28.9145         2.05339 
         4.6025          28.672         2.03566 
        4.61821         28.4486         2.01814 
        4.63391         28.2324         2.00085 
         4.6496         27.9393         1.98377 
        4.66532          27.788         1.96686 
        4.68103         27.4483         1.95016 
        4.69673         27.3019         1.93367 
        4.71241         27.0458         1.91738 
        4.72811         26.8332         1.90126 
        4.74384         26.6464          1.8853 
        4.75955         26.4495         1.86954 
        4.77525         26.2036         1.85398 
        4.79096         25.9528         1.83857 
        4.80669         25.7363         1.82333 
         4.8224         25.5642         1.80829 
        4.83809         25.3503         1.79342 
        4.85379         25.1902         1.77872 
         4.8695         24.9213         1.76417 
        4.88521         24.6715         1.74978 
        4.90093         24.5205         1.73556 
        4.91663         24.3961          1.7215 
        4.93234         24.1856         1.70759 
        4.94807         23.9599         1.69382 
        4.96377           23.79         1.68023 
        4.97943          23.583         1.66682 
        4.99514          23.402         1.65351 
        5.01086          23.249         1.64035 
        5.02654         23.0671         1.62736 
        5.04227         22.8571         1.61447 
          5.058         22.6907         1.60171 
        5.07371         22.5575         1.58912 
        5.08942         22.3381         1.57666 
        5.10513         22.1633         1.56434 
        5.12084         21.9826         1.55214 
        5.13656         21.8022         1.54007 
        5.15225         21.6637         1.52815 
        5.16796         21.4883         1.51634 
        5.18369         21.2893         1.50464 
         5.1994         21.1478         1.49309 
        5.21509         20.9294         1.48167 
        5.23079          20.811         1.47035 
        5.24649         20.6518         1.45916 
        5.26217         20.4834          1.4481 
        5.27788         20.3455         1.43713 
        5.29359         20.1385         1.42628 
        5.30933         20.0163         1.41552 
        5.32504         19.8818         1.40489 
        5.34073         19.7034         1.39438 
        5.35646         19.5784         1.38396 
        5.37218         19.4715         1.37364 
        5.38789         19.3046         1.36345 
        5.40357          19.123         1.35337 
        5.41929         18.9987         1.34337 
        5.43502         18.8959         1.33346 
         5.4507         18.7099         1.32369 
        5.46639         18.5606         1.31401 
        5.48212         18.4546          1.3044 
        5.49786         18.3383         1.29488 
        5.51353         18.1299          1.2855 
        5.52921         18.0476          1.2762 
        5.54495         17.8975         1.26697 
        5.56066         17.7545         1.25784 
        5.57637         17.6459          1.2488 
        5.59207         17.5076         1.23985 
        5.60778         17.4108           1.231 
        5.62346         17.2619         1.22224 
        5.63916         17.1383         1.21355 
        5.65487         17.0194         1.20495 
         5.6706         16.8746         1.19642 
        5.68633         16.7535         1.18797 
        5.70203         16.6467         1.17962 
        5.71773         16.5147         1.17135 
        5.73344         16.3937         1.16315 
        5.74916         16.2654         1.15503 
        5.76486         16.1818         1.14699 
        5.78054         16.0287         1.13905 
        5.79626         15.9441         1.13115 
          5.812         15.8056         1.12333 
         5.8277         15.7243          1.1156 
        5.84339         15.5718         1.10794 
        5.85911          15.478         1.10034 
        5.87484         15.3484         1.09281 
        5.89053         15.2718         1.08537 
        5.90623         15.1508         1.07799 
        5.92195         15.0032         1.07067 
        5.93767         14.9548         1.06343 
        5.95336         14.7956         1.05626 
        5.96905         14.7293         1.04916 
        5.98476         14.5947         1.04211 
        6.00048         14.5408         1.03513 
        6.01617         14.4353         1.02822 
        6.03185         14.3049         1.02138 
        6.04756          14.238         1.01459 
        6.06331         14.1174         1.00784 
        6.07903         14.0511         1.00117 
        6.09473         13.9229        0.994567 
        6.11044         13.8631        0.988017 
        6.12616         13.7472        0.981527 
        6.14186         13.6327        0.975102 
        6.15755         13.5557        0.968735 
        6.17326         13.4595         0.96242 
        6.18898         13.3316        0.956158 
        6.20467         13.2765        0.949962 
        6.22036         13.1665        0.943823 
         6.2361         13.0858         0.93772 
         6.2518         12.9953        0.931682 
        6.26748         12.8782         0.92571 
        6.28319         12.8119        0.919774 
        6.29893         12.7361        0.913885 
        6.31463         12.6313        0.908057 
        6.33033         12.5601        0.902282 
        6.34604         12.4665        0.896553 
        6.36177         12.3891        0.890869 
        6.37747           12.33        0.885244 
