# k  (h/Mpc)    Pcb(k)  (Mpc/h)^3    Pcb_linear(k) (Mpc/h)^3   ShotnoiseSubtracted = true
      0.0200456         9641.38         9812.49 
      0.0350414         7466.28         7693.99 
      0.0492313          6014.2         6096.01 
      0.0637834         5033.85         4957.03 
      0.0800726         3826.99         3744.56 
       0.096163         2861.27         2945.33 
       0.111083         2385.19         2493.22 
       0.126058          2097.1         2072.58 
       0.142273         1756.97         1686.53 
       0.158546         1542.48         1436.73 
        0.17375         1266.62            1250 
       0.188953         1185.65         1074.62 
       0.204907         1103.68         930.238 
       0.220756         955.644         822.183 
        0.23588         846.376         730.277 
         0.2514         736.035         647.083 
       0.267535         711.913         577.088 
       0.283568          649.48         518.564 
       0.299022         606.572         468.278 
       0.314451         568.152         424.568 
       0.330372         524.307         386.036 
       0.346141         478.074         352.406 
       0.361624         457.451         322.987 
       0.377134         427.286         296.969 
       0.392932         404.712         273.523 
       0.408854         388.187         252.384 
       0.424564         370.268          233.66 
       0.440253          356.44           216.9 
       0.455999         336.065         201.746 
       0.471626         311.668         188.117 
        0.48727         304.232         175.731 
       0.502856         293.846         164.507 
       0.518488         290.059         154.234 
       0.534347          273.21         144.705 
       0.550082         256.645         136.047 
       0.565732         252.881         128.141 
       0.581496         239.999         120.813 
       0.597222         234.373         114.074 
       0.612804         225.569         107.906 
       0.628434         217.844         102.179 
       0.644267         210.672         96.8025 
       0.660051         207.781         91.8294 
       0.675724         203.664         87.2378 
       0.691403          197.57         82.9597 
       0.707174         189.025          78.947 
       0.722871         187.416         75.2176 
        0.73838         183.256         71.7704 
       0.754018         177.392         68.5142 
       0.769845         172.621         65.4251 
        0.78569         170.298         62.5241 
       0.801365         165.456         59.8279 
       0.817031         159.854         57.2929 
       0.832809         157.111          54.889 
       0.848511         153.548         52.6341 
       0.864097         150.515         50.5217 
       0.879701         147.465         48.5237 
       0.895507         143.865         46.6104 
       0.911279         141.253         44.8046 
        0.92691         139.237         43.1099 
       0.942635         136.183         41.4938 
       0.958396         135.758         39.9574 
       0.974128         131.769         38.5021 
       0.989692         128.251         37.1339 
        1.00528         126.008         35.8305 
        1.02113         125.025         34.5695 
        1.03692         120.301         33.3743 
        1.05264         119.691         32.2413 
        1.06832         117.021         31.1629 
        1.08405         115.384         30.1312 
        1.09979         114.695         29.1459 
        1.11537         110.886         28.2145 
        1.13105         110.595         27.3185 
        1.14679         109.296         26.4581 
        1.16256         107.612         25.6333 
        1.17828          104.55         24.8464 
        1.19395         103.823         24.0954 
         1.2097         101.204         23.3717 
        1.22537           101.1         22.6814 
          1.241         98.6126         22.0211 
        1.25666         96.7463         21.3856 
        1.27241         95.7289         20.7722 
        1.28819         94.0866         20.1819 
        1.30392         92.8167         19.6164 
        1.31957         91.1827         19.0752 
        1.33529         89.8117         18.5524 
        1.35108         88.8602         18.0472 
        1.36674         87.6949         17.5646 
         1.3824         86.2352            17.1 
        1.39811         85.1522         16.6508 
        1.41389         83.8635          16.216 
        1.42964         82.9355         15.7976 
        1.44531         81.0489          15.396 
        1.46101         80.1135         15.0075 
        1.47667         79.6447         14.6337 
        1.49229         78.0236         14.2736 
        1.50793         77.3302         13.9253 
        1.52367         76.3335         13.5864 
        1.53953         75.1856         13.2565 
        1.55526         74.3809         12.9402 
        1.57092         73.9959         12.6356 
        1.58662         72.5197         12.3401 
        1.60235          71.841         12.0535 
        1.61809         70.8603         11.7759 
        1.63369         69.6233         11.5095 
        1.64941         68.8954         11.2495 
        1.66519         67.7584         10.9966 
        1.68085         67.0604         10.7533 
        1.69652          66.036         10.5173 
        1.71228         65.5045          10.287 
        1.72806         64.8148         10.0635 
        1.74368         63.9004         9.84887 
        1.75933         63.2558         9.64009 
        1.77505         62.5079          9.4364 
        1.79081         61.5029         9.23824 
         1.8065         61.0515         9.04664 
        1.82218         60.0349         8.86065 
        1.83797         59.5386         8.67862 
        1.85367         58.7216         8.50273 
        1.86928         58.2948         8.33277 
        1.88497         57.3038         8.16654 
        1.90073         56.6769         8.00424 
        1.91647         56.3032          7.8465 
        1.93218          55.407         7.69336 
        1.94787         54.8221         7.54454 
        1.96363         53.9631         7.39907 
        1.97935          53.636         7.25774 
        1.99499         52.7786          7.1209 
        2.01064         52.6555         6.98741 
         2.0264         51.3592          6.8565 
        2.04216         50.9183         6.72901 
        2.05781         50.3645         6.60558 
        2.07353          49.831         6.48481 
        2.08928         49.1628         6.36679 
        2.10499         48.8232         6.25204 
        2.12065         48.2147         6.14046 
        2.13633         47.9946         6.03151 
        2.15211         47.4105         5.92451 
        2.16785         46.5006          5.8204 
        2.18349         46.2703         5.71946 
        2.19916         45.7341         5.62069 
        2.21489          45.268         5.52394 
        2.23063         44.6058          5.4294 
         2.2463         44.1698          5.3375 
        2.26194         43.4419         5.24796 
        2.27765         42.9626         5.16002 
        2.29341         42.5022         5.07386 
        2.30914         41.9665         4.98985 
        2.32486         41.4653          4.9078 
        2.34061         41.1193         4.82745 
        2.35635         40.7325         4.74898 
        2.37203          40.127         4.67252 
        2.38768         39.7977         4.59791 
        2.40339         39.4663         4.52466 
        2.41914         39.0824         4.45284 
        2.43483         38.3891         4.38283 
         2.4505         38.0663         4.31444 
        2.46622         37.7724         4.24728 
        2.48195         37.3565         4.18155 
        2.49759         36.8993         4.11756 
        2.51328         36.3628         4.05474 
        2.52906         36.1791         3.99284 
        2.54479         35.5891         3.93246 
        2.56049         35.2371         3.87345 
        2.57618         34.8257          3.8157 
        2.59189         34.5565         3.75905 
        2.60758         34.2123         3.70363 
        2.62325         33.7843          3.6494 
        2.63898           33.49         3.59606 
        2.65468         33.0526         3.54391 
        2.67044         32.8123         3.49257 
        2.68618         32.4389         3.44236 
        2.70184         32.0241         3.39334 
        2.71755         31.8494         3.34516 
        2.73329         31.4425         3.29783 
        2.74897         31.1181         3.25158 
        2.76462         30.7144         3.20632 
        2.78034         30.4397         3.16173 
        2.79607         30.1547         3.11794 
        2.81179         29.9286         3.07504 
        2.82749         29.6413         3.03298 
        2.84321         29.1607         2.99167 
        2.85893         28.9067         2.95115 
        2.87462         28.6042         2.91144 
        2.89033         28.4058         2.87242 
        2.90605         28.0985         2.83409 
        2.92176         27.9427         2.79648 
        2.93747         27.4909         2.75957 
        2.95318         27.1399         2.72332 
        2.96891         26.9614          2.6877 
        2.98456         26.6428         2.65288 
        3.00023          26.436         2.61862 
        3.01596         26.0977         2.58486 
        3.03164         25.8847          2.5518 
        3.04738         25.7587         2.51921 
         3.0631         25.4049         2.48721 
        3.07883         25.1397         2.45576 
        3.09456         24.8281         2.42486 
        3.11026          24.628         2.39454 
        3.12596         24.4149         2.36474 
        3.14163         24.1794         2.33552 
        3.15734         23.8976         2.30672 
        3.17308         23.6768         2.27834 
        3.18879          23.437         2.25052 
        3.20447         23.2281          2.2232 
         3.2202         23.0123         2.19625 
         3.2359         22.7333         2.16979 
        3.25157         22.6663         2.14383 
        3.26729         22.4197         2.11822 
        3.28304         22.1407         2.09298 
        3.29877         21.8259         2.06818 
        3.31446         21.7504         2.04384 
        3.33014         21.5025         2.01991 
        3.34585         21.2924         1.99632 
        3.36158         21.1045         1.97308 
        3.37727         20.8605         1.95028 
        3.39294         20.7063         1.92786 
        3.40867         20.5494         1.90572 
        3.42439         20.2929         1.88393 
        3.44008         20.1045         1.86253 
        3.45578         19.9512         1.84144 
        3.47153         19.6915         1.82064 
        3.48724         19.4992         1.80019 
        3.50292         19.3706          1.7801 
        3.51859         19.1786         1.76033 
        3.53431         19.0098          1.7408 
        3.55007         18.7953         1.72152 
        3.56577         18.6283          1.7026 
        3.58146         18.4733         1.68398 
        3.59719          18.274         1.66559 
        3.61292         18.0809         1.64749 
        3.62859         17.9578         1.62972 
        3.64429          17.806         1.61218 
        3.66003         17.6696         1.59484 
        3.67578         17.4773         1.57777 
        3.69146         17.2959         1.56101 
        3.70712         17.1406         1.54452 
        3.72284          17.078         1.52821 
        3.73853         16.8458         1.51216 
        3.75422         16.6629         1.49634 
        3.76993         16.5353         1.48073 
        3.78564         16.3889         1.46535 
        3.80137         16.2332         1.45017 
        3.81707         16.0733         1.43523 
        3.83279         15.9318         1.42048 
        3.84853         15.7756         1.40593 
        3.86424         15.6819          1.3916 
        3.87992          15.503          1.3775 
        3.89561         15.3651         1.36359 
        3.91134         15.2171         1.34984 
        3.92704         15.0998          1.3363 
        3.94273         14.9782         1.32296 
        3.95845         14.8352         1.30977 
        3.97418         14.7133         1.29677 
        3.98988         14.5788         1.28395 
        4.00554         14.4516         1.27135 
        4.02125         14.3166         1.25888 
        4.03698          14.239         1.24655 
        4.05268         14.0546         1.23442 
        4.06839         13.9329         1.22244 
         4.0841         13.8227         1.21063 
        4.09983         13.7013         1.19895 
        4.11555         13.5499         1.18743 
        4.13124         13.4772          1.1761 
        4.14693         13.3401          1.1649 
        4.16266         13.2476         1.15382 
        4.17839         13.1152          1.1429 
        4.19408         12.9751         1.13214 
        4.20977         12.9149         1.12151 
        4.22551         12.8077           1.111 
        4.24123         12.6841         1.10063 
        4.25691         12.5483         1.09042 
        4.27259         12.4534         1.08034 
        4.28831         12.3318         1.07036 
        4.30404         12.2646          1.0605 
        4.31974         12.1261         1.05079 
        4.33543         12.0262          1.0412 
        4.35116         11.9606         1.03171 
        4.36688         11.8227         1.02234 
        4.38255         11.7406         1.01313 
        4.39825         11.6211           1.004 
        4.41398         11.5981        0.994973 
         4.4297         11.4481        0.986065 
        4.44541         11.3308        0.977267 
        4.46111         11.2633        0.968583 
        4.47683         11.1573        0.959998 
        4.49251          11.074        0.951535 
        4.50819         10.9976        0.943176 
         4.5239         10.9303        0.934906 
        4.53962          10.792        0.926724 
        4.55535         10.7257        0.918636 
        4.57106         10.6299        0.910656 
        4.58678         10.5092         0.90277 
         4.6025         10.4433        0.894974 
        4.61821         10.3592        0.887273 
        4.63391         10.2794        0.879671 
         4.6496         10.2072        0.872162 
        4.66532         10.1113        0.864729 
        4.68103         10.0412        0.857386 
        4.69673         9.94276        0.850135 
        4.71241         9.84162        0.842975 
        4.72811         9.77577        0.835885 
        4.74384         9.71587        0.828868 
        4.75955         9.63161        0.821943 
        4.77525         9.54523          0.8151 
        4.79096         9.49738        0.808326 
        4.80669         9.41634        0.801627 
         4.8224         9.33571        0.795011 
        4.83809         9.25617        0.788476 
        4.85379         9.19221        0.782011 
         4.8695         9.13892        0.775613 
        4.88521         9.03374         0.76929 
        4.90093         8.96387        0.763036 
        4.91663         8.90849        0.756857 
        4.93234         8.83885         0.75074 
        4.94807          8.7723        0.744686 
        4.96377         8.68725        0.738711 
        4.97943         8.61646        0.732813 
        4.99514         8.56811        0.726965 
        5.01086         8.51191        0.721176 
        5.02654          8.4442        0.715465 
        5.04227         8.37323        0.709799 
          5.058         8.28461        0.704191 
        5.07371          8.2483        0.698656 
        5.08942         8.18298        0.693178 
        5.10513         8.12769        0.687759 
        5.12084         8.06016        0.682395 
        5.13656         7.99888         0.67709 
        5.15225         7.93849         0.67185 
        5.16796         7.88866        0.666656 
        5.18369         7.83193        0.661513 
         5.1994         7.75039        0.656434 
        5.21509         7.69103        0.651412 
        5.23079         7.65206        0.646437 
        5.24649         7.58245        0.641518 
        5.26217         7.53403        0.636653 
        5.27788         7.46537        0.631832 
        5.29359         7.40986         0.62706 
        5.30933         7.36314        0.622331 
        5.32504         7.31045        0.617658 
        5.34073         7.26047        0.613038 
        5.35646         7.20039        0.608456 
        5.37218         7.16063         0.60392 
        5.38789         7.11483        0.599438 
        5.40357         7.05257        0.595006 
        5.41929         7.00476        0.590609 
        5.43502         6.94185        0.586256 
         5.4507         6.90495        0.581957 
        5.46639         6.86711        0.577701 
        5.48212         6.80935        0.573477 
        5.49786         6.78152        0.569291 
        5.51353         6.70948        0.565167 
        5.52921         6.66983         0.56108 
        5.54495         6.60889        0.557021 
        5.56066          6.5646        0.553006 
        5.57637          6.5106        0.549032 
        5.59207         6.49204        0.545101 
        5.60778         6.41173        0.541206 
        5.62346         6.38109        0.537355 
        5.63916         6.33131        0.533537 
        5.65487         6.29894        0.529755 
         5.6706         6.24747        0.526005 
        5.68633         6.19999         0.52229 
        5.70203         6.16836        0.518618 
        5.71773          6.1286        0.514982 
        5.73344         6.06364        0.511379 
        5.74916         6.04508        0.507808 
        5.76486         6.00241        0.504275 
        5.78054         5.95917        0.500781 
        5.79626         5.90961        0.497311 
          5.812         5.86926         0.49387 
         5.8277         5.82994        0.490471 
        5.84339         5.80073        0.487105 
        5.85911         5.75731        0.483764 
        5.87484         5.72671        0.480454 
        5.89053         5.66722        0.477182 
        5.90623         5.64076        0.473939 
        5.92195         5.59341        0.470721 
        5.93767         5.56047        0.467534 
        5.95336         5.52039        0.464382 
        5.96905          5.4931         0.46126 
        5.98476         5.45542        0.458162 
        6.00048         5.41588        0.455092 
        6.01617         5.39069        0.452054 
        6.03185         5.34813        0.449048 
        6.04756         5.31209        0.446061 
        6.06331         5.26516        0.443096 
        6.07903         5.24896        0.440163 
        6.09473         5.21195         0.43726 
        6.11044         5.17429        0.434381 
        6.12616         5.14069        0.431527 
        6.14186         5.10253        0.428703 
        6.15755         5.07588        0.425903 
        6.17326         5.03805        0.423127 
        6.18898         4.99928        0.420374 
        6.20467         4.96997         0.41765 
        6.22036         4.93783         0.41495 
         6.2361         4.90786        0.412268 
         6.2518         4.87921        0.409613 
        6.26748         4.84313        0.406987 
        6.28319         4.81039        0.404378 
        6.29893          4.7844        0.401788 
        6.31463         4.76286        0.399226 
        6.33033         4.72057        0.396687 
        6.34604          4.6966        0.394169 
        6.36177         4.67651        0.391669 
        6.37747         4.64694        0.389196 
