# k  (h/Mpc)    Pcb(k)  (Mpc/h)^3    Pcb_linear(k) (Mpc/h)^3   ShotnoiseSubtracted = true
      0.0200456         3040.74         3074.16 
      0.0350414         2446.81         2410.46 
      0.0492313         1903.94         1909.82 
      0.0637834         1523.62         1552.99 
      0.0800726         1155.68         1173.14 
       0.096163         938.446         922.746 
       0.111083         799.219         781.103 
       0.126058         645.896         649.319 
       0.142273         530.178         528.375 
       0.158546          456.37         450.114 
        0.17375         403.127         391.614 
       0.188953         350.455         336.669 
       0.204907         294.172         291.435 
       0.220756         267.854         257.582 
        0.23588         238.419         228.789 
         0.2514         212.238         202.725 
       0.267535         196.598         180.796 
       0.283568         174.094         162.461 
       0.299022         161.662         146.707 
       0.314451         153.336         133.013 
       0.330372         135.248         120.941 
       0.346141         124.598         110.405 
       0.361624         115.829         101.189 
       0.377134         105.953         93.0375 
       0.392932         102.709         85.6923 
       0.408854         94.7464         79.0695 
       0.424564         90.5799         73.2034 
       0.440253         82.6194         67.9527 
       0.455999         76.0268         63.2052 
       0.471626         72.3361         58.9353 
        0.48727         70.4404         55.0549 
       0.502856         65.3729         51.5384 
       0.518488         62.0319         48.3201 
       0.534347         58.6076         45.3347 
       0.550082         56.4805         42.6223 
       0.565732         54.5681         40.1453 
       0.581496         51.0039         37.8496 
       0.597222         48.6073         35.7383 
       0.612804         46.7654         33.8059 
       0.628434         45.7965         32.0117 
       0.644267         43.3681         30.3273 
       0.660051          41.395         28.7693 
       0.675724         39.7511         27.3308 
       0.691403         39.0574         25.9905 
       0.707174         37.6872         24.7334 
       0.722871         36.3931          23.565 
        0.73838         34.6475          22.485 
       0.754018         32.9735         21.4649 
       0.769845          32.317         20.4971 
        0.78569         31.1932         19.5882 
       0.801365         30.2479         18.7435 
       0.817031         29.1405         17.9493 
       0.832809          28.494         17.1962 
       0.848511         27.5781         16.4898 
       0.864097         26.8267          15.828 
       0.879701         26.3758          15.202 
       0.895507         25.3835         14.6026 
       0.911279         24.4841         14.0369 
        0.92691         24.0613         13.5059 
       0.942635         23.5468         12.9996 
       0.958396         22.8476         12.5183 
       0.974128         22.2531         12.0623 
       0.989692         21.3984         11.6337 
        1.00528         21.2491         11.2254 
        1.02113         20.5815         10.8303 
        1.03692         20.1524         10.4558 
        1.05264         19.7563         10.1009 
        1.06832          19.365         9.76305 
        1.08405         18.8109         9.43983 
        1.09979         18.4494         9.13113 
        1.11537         17.9571         8.83935 
        1.13105         17.6813         8.55863 
        1.14679         17.2519         8.28908 
        1.16256         16.9519         8.03066 
        1.17828         16.6366         7.78416 
        1.19395          16.375         7.54887 
         1.2097            15.9         7.32215 
        1.22537         15.6623         7.10587 
          1.241         15.3351         6.89901 
        1.25666         15.1895          6.6999 
        1.27241         14.8761         6.50774 
        1.28819         14.3154         6.32282 
        1.30392         14.3921         6.14564 
        1.31957         14.0135         5.97607 
        1.33529         13.8093          5.8123 
        1.35108         13.6007         5.65403 
        1.36674         13.2904         5.50281 
         1.3824          13.113         5.35728 
        1.39811         12.8826         5.21654 
        1.41389         12.6515         5.08033 
        1.42964         12.4964         4.94924 
        1.44531         12.2861         4.82342 
        1.46101         12.1177         4.70172 
        1.47667         11.9172          4.5846 
        1.49229         11.6543         4.47179 
        1.50793         11.5415         4.36267 
        1.52367         11.3926         4.25649 
        1.53953         11.1753         4.15314 
        1.55526         11.0335         4.05406 
        1.57092         10.9365         3.95863 
        1.58662         10.7485         3.86605 
        1.60235         10.5965         3.77626 
        1.61809         10.4777         3.68929 
        1.63369         10.2697         3.60583 
        1.64941         10.1554         3.52437 
        1.66519         9.99789         3.44513 
        1.68085         9.84442          3.3689 
        1.69652         9.79756         3.29496 
        1.71228         9.66353         3.22283 
        1.72806         9.46846          3.1528 
        1.74368         9.39872         3.08556 
        1.75933         9.29653         3.02015 
        1.77505         9.12032         2.95634 
        1.79081         9.04803         2.89426 
         1.8065          8.9942         2.83423 
        1.82218         8.85021         2.77596 
        1.83797         8.71756         2.71893 
        1.85367         8.61727         2.66382 
        1.86928         8.53006         2.61058 
        1.88497         8.42433          2.5585 
        1.90073         8.31074         2.50765 
        1.91647         8.14267         2.45824 
        1.93218         8.11441         2.41026 
        1.94787         7.98465         2.36363 
        1.96363         7.91792         2.31806 
        1.97935         7.88419         2.27378 
        1.99499         7.76381         2.23091 
        2.01064         7.67162         2.18909 
         2.0264         7.57846         2.14808 
        2.04216           7.561         2.10814 
        2.05781         7.45145         2.06947 
        2.07353            7.36         2.03163 
        2.08928         7.22241         1.99466 
        2.10499          7.1811         1.95871 
        2.12065         7.17897         1.92375 
        2.13633         7.06362         1.88962 
        2.15211         6.97372         1.85609 
        2.16785         6.87411         1.82348 
        2.18349         6.86482         1.79185 
        2.19916         6.77225         1.76091 
        2.21489         6.70186          1.7306 
        2.23063         6.64661         1.70098 
         2.2463         6.55943         1.67219 
        2.26194         6.48952         1.64414 
        2.27765          6.4257         1.61658 
        2.29341         6.33128         1.58959 
        2.30914         6.32971         1.56327 
        2.32486         6.23356         1.53757 
        2.34061         6.19079          1.5124 
        2.35635         6.12567         1.48781 
        2.37203         6.08542         1.46386 
        2.38768         6.02905         1.44048 
        2.40339         5.96868         1.41753 
        2.41914         5.91609         1.39503 
        2.43483         5.85365          1.3731 
         2.4505         5.80229         1.35167 
        2.46622          5.7355         1.33063 
        2.48195         5.72995         1.31004 
        2.49759         5.62034         1.28999 
        2.51328         5.59681         1.27031 
        2.52906         5.53344         1.25092 
        2.54479         5.48903           1.232 
        2.56049         5.45437         1.21352 
        2.57618         5.40671         1.19542 
        2.59189         5.40524         1.17767 
        2.60758         5.32352         1.16031 
        2.62325         5.25421         1.14332 
        2.63898         5.24657         1.12661 
        2.65468         5.17581         1.11027 
        2.67044         5.14203         1.09419 
        2.68618         5.09992         1.07846 
        2.70184         5.07369          1.0631 
        2.71755         5.00588         1.04801 
        2.73329         4.97186         1.03318 
        2.74897         4.93446         1.01869 
        2.76462         4.88956         1.00451 
        2.78034         4.85929         0.99054 
        2.79607         4.80983        0.976822 
        2.81179         4.76816         0.96338 
        2.82749         4.72059        0.950206 
        2.84321         4.70295        0.937264 
        2.85893         4.66361        0.924566 
        2.87462         4.62609        0.912126 
        2.89033         4.59991        0.899903 
        2.90605         4.55421        0.887894 
        2.92176         4.50495        0.876111 
        2.93747         4.47995        0.864547 
        2.95318         4.43694        0.853189 
        2.96891         4.41868        0.842031 
        2.98456         4.37945        0.831121 
        3.00023         4.35558        0.820389 
        3.01596         4.30978        0.809813 
        3.03164          4.2704        0.799454 
        3.04738         4.25799        0.789246 
         3.0631         4.22995         0.77922 
        3.07883         4.19032        0.769367 
        3.09456         4.14012        0.759687 
        3.11026         4.12437        0.750187 
        3.12596          4.1012        0.740852 
        3.14163         4.06251        0.731697 
        3.15734         4.03891        0.722675 
        3.17308         4.00639        0.713783 
        3.18879         3.98734        0.705066 
        3.20447         3.94956        0.696507 
         3.2202         3.92284        0.688063 
         3.2359         3.89607        0.679775 
        3.25157         3.87211        0.671642 
        3.26729         3.84151        0.663619 
        3.28304          3.8114         0.65571 
        3.29877         3.78833        0.647941 
        3.31446         3.76637        0.640315 
        3.33014         3.72911        0.632818 
        3.34585         3.71945        0.625429 
        3.36158         3.68292        0.618148 
        3.37727         3.66559        0.611005 
        3.39294         3.63737        0.603982 
        3.40867         3.61722        0.597044 
        3.42439          3.5691        0.590219 
        3.44008         3.55891        0.583513 
        3.45578         3.53512        0.576907 
        3.47153         3.51184        0.570389 
        3.48724         3.49539        0.563983 
        3.50292         3.46725         0.55769 
        3.51859         3.44451        0.551496 
        3.53431         3.41698        0.545377 
        3.55007         3.41273        0.539336 
        3.56577         3.37236         0.53341 
        3.58146         3.35649        0.527575 
        3.59719         3.34184        0.521815 
        3.61292         3.31266        0.516142 
        3.62859         3.29993        0.510576 
        3.64429         3.26569         0.50508 
        3.66003         3.25363        0.499649 
        3.67578         3.23501        0.494299 
        3.69146         3.20148        0.489048 
        3.70712         3.18535        0.483883 
        3.72284         3.16769        0.478773 
        3.73853         3.15204        0.473746 
        3.75422         3.12251         0.46879 
        3.76993         3.10794          0.4639 
        3.78564         3.08831        0.459081 
        3.80137         3.06987        0.454323 
        3.81707         3.05025        0.449643 
        3.83279         3.02779        0.445025 
        3.84853         3.01272        0.440464 
        3.86424         2.99044        0.435976 
        3.87992         2.96654        0.431557 
        3.89561         2.94982        0.427199 
        3.91134         2.93626        0.422892 
        3.92704         2.91138         0.41865 
        3.94273         2.89203         0.41447 
        3.95845         2.87905         0.41034 
        3.97418         2.86632        0.406265 
        3.98988         2.84795        0.402251 
        4.00554         2.82483        0.398302 
        4.02125         2.79834        0.394394 
        4.03698         2.79251        0.390533 
        4.05268         2.76491        0.386733 
        4.06839         2.75164         0.38298 
         4.0841         2.73381        0.379278 
        4.09983         2.71417         0.37562 
        4.11555         2.69761        0.372012 
        4.13124         2.68319         0.36846 
        4.14693         2.66547        0.364953 
        4.16266         2.65116        0.361482 
        4.17839         2.63117        0.358059 
        4.19408         2.61308        0.354688 
        4.20977         2.59611        0.351359 
        4.22551         2.58244        0.348065 
        4.24123         2.56324        0.344816 
        4.25691         2.55378        0.341618 
        4.27259         2.53542        0.338459 
        4.28831         2.51583        0.335334 
        4.30404         2.50506        0.332245 
        4.31974         2.49064        0.329202 
        4.33543         2.46337        0.326198 
        4.35116         2.46048        0.323225 
        4.36688         2.44108         0.32029 
        4.38255         2.42915        0.317403 
        4.39825         2.40841        0.314545 
        4.41398         2.40213        0.311716 
         4.4297         2.38129        0.308925 
        4.44541         2.36617        0.306169 
        4.46111         2.35621        0.303448 
        4.47683          2.3442        0.300759 
        4.49251         2.33101        0.298107 
        4.50819         2.31316        0.295488 
         4.5239         2.30138        0.292897 
        4.53962         2.29093        0.290334 
        4.55535         2.27281          0.2878 
        4.57106         2.26203          0.2853 
        4.58678         2.24309        0.282829 
         4.6025         2.23308        0.280387 
        4.61821         2.23108        0.277974 
        4.63391         2.20833        0.275593 
         4.6496         2.20306         0.27324 
        4.66532         2.18687        0.270912 
        4.68103         2.17041        0.268611 
        4.69673         2.15987        0.266339 
        4.71241         2.15138        0.264096 
        4.72811         2.13854        0.261875 
        4.74384         2.13063        0.259677 
        4.75955         2.11643        0.257507 
        4.77525         2.10279        0.255363 
        4.79096            2.09        0.253241 
        4.80669         2.08232        0.251142 
         4.8224         2.07423         0.24907 
        4.83809         2.06029        0.247022 
        4.85379          2.0529        0.244997 
         4.8695         2.03662        0.242992 
        4.88521         2.03108        0.241011 
        4.90093         2.02395        0.239052 
        4.91663         2.00363        0.237116 
        4.93234         2.00238          0.2352 
        4.94807         1.99027        0.233303 
        4.96377         1.97505        0.231431 
        4.97943         1.96844        0.229584 
        4.99514         1.95256        0.227751 
        5.01086         1.94469        0.225938 
        5.02654         1.93526        0.224149 
        5.04227          1.9298        0.222373 
          5.058         1.92023        0.220617 
        5.07371         1.91204        0.218882 
        5.08942         1.90245        0.217166 
        5.10513         1.88684        0.215469 
        5.12084         1.87758        0.213788 
        5.13656         1.87128        0.212126 
        5.15225         1.85808        0.210484 
        5.16796         1.85074        0.208857 
        5.18369         1.84352        0.207246 
         5.1994         1.83633        0.205655 
        5.21509         1.82699        0.204081 
        5.23079         1.82001        0.202523 
        5.24649         1.81221        0.200982 
        5.26217         1.80463        0.199458 
        5.27788         1.79016        0.197947 
        5.29359         1.78414        0.196452 
        5.30933         1.77896         0.19497 
        5.32504         1.76946        0.193506 
        5.34073         1.75534        0.192059 
        5.35646         1.75038        0.190624 
        5.37218         1.74412        0.189203 
        5.38789         1.73358        0.187798 
        5.40357         1.72798         0.18641 
        5.41929         1.71914        0.185032 
        5.43502         1.71016        0.183669 
         5.4507         1.70196        0.182322 
        5.46639         1.69701        0.180988 
        5.48212         1.68914        0.179665 
        5.49786         1.67988        0.178354 
        5.51353         1.67457        0.177062 
        5.52921         1.66291        0.175781 
        5.54495         1.65758        0.174509 
        5.56066         1.64901        0.173252 
        5.57637         1.64074        0.172007 
        5.59207          1.6348        0.170775 
        5.60778         1.63177        0.169555 
        5.62346          1.6186        0.168348 
        5.63916         1.61765        0.167152 
        5.65487         1.60506        0.165967 
         5.6706         1.60111        0.164792 
        5.68633         1.59148        0.163629 
        5.70203         1.58839        0.162478 
        5.71773         1.58021        0.161339 
        5.73344         1.57487         0.16021 
        5.74916         1.56668        0.159091 
        5.76486         1.55938        0.157985 
        5.78054         1.55147         0.15689 
        5.79626         1.54884        0.155803 
          5.812         1.54184        0.154725 
         5.8277         1.53277         0.15366 
        5.84339         1.52635        0.152605 
        5.85911         1.52269        0.151559 
        5.87484         1.51317        0.150522 
        5.89053         1.50964        0.149497 
        5.90623         1.50596        0.148481 
        5.92195         1.49778        0.147472 
        5.93767         1.49108        0.146474 
        5.95336         1.48614        0.145487 
        5.96905          1.4777        0.144508 
        5.98476         1.47367        0.143538 
        6.00048         1.46671        0.142576 
        6.01617         1.45935        0.141624 
        6.03185         1.45392        0.140683 
        6.04756         1.44979        0.139747 
        6.06331         1.44523        0.138818 
        6.07903         1.43934        0.137899 
        6.09473         1.43129         0.13699 
        6.11044         1.42554        0.136087 
        6.12616         1.42012        0.135194 
        6.14186         1.41483        0.134309 
        6.15755         1.41243        0.133432 
        6.17326         1.40597        0.132562 
        6.18898         1.39929        0.131699 
        6.20467         1.39607        0.130846 
        6.22036         1.39024            0.13 
         6.2361         1.38578         0.12916 
         6.2518         1.38068        0.128328 
        6.26748         1.37262        0.127505 
        6.28319         1.36843        0.126688 
        6.29893           1.362        0.125877 
        6.31463         1.35928        0.125074 
        6.33033         1.35165        0.124278 
        6.34604         1.34851        0.123489 
        6.36177         1.34191        0.122706 
        6.37747         1.33936        0.121932 
