# k  (h/Mpc)    Pcb(k)  (Mpc/h)^3    Pcb_linear(k) (Mpc/h)^3   ShotnoiseSubtracted = true
      0.0200456         6945.41          7027.4 
      0.0350414         5619.58          5510.2 
      0.0492313         4326.25         4365.78 
      0.0637834         3443.13         3550.07 
      0.0800726         2608.51         2681.74 
       0.096163         2152.92         2109.36 
       0.111083         1839.06         1785.57 
       0.126058         1471.77         1484.32 
       0.142273         1222.51         1207.84 
       0.158546         1054.92         1028.94 
        0.17375         937.055         895.213 
       0.188953         831.457         769.611 
       0.204907         700.248         666.208 
       0.220756         638.777         588.822 
        0.23588         571.164         523.002 
         0.2514         508.341         463.421 
       0.267535         484.897         413.293 
       0.283568         425.825         371.379 
       0.299022         403.746         335.366 
       0.314451         397.047         304.062 
       0.330372         343.054         276.467 
       0.346141         318.518         252.382 
       0.361624          302.01         231.313 
       0.377134          278.57          212.68 
       0.392932         271.454         195.889 
       0.408854         256.163         180.749 
       0.424564         245.684          167.34 
       0.440253         222.029         155.337 
       0.455999         210.357         144.484 
       0.471626          205.82         134.724 
        0.48727         197.858         125.853 
       0.502856         180.953         117.815 
       0.518488         179.108         110.458 
       0.534347         167.544         103.633 
       0.550082         163.668         97.4327 
       0.565732         160.713         91.7705 
       0.581496         148.768         86.5226 
       0.597222         145.579         81.6963 
       0.612804         141.123         77.2788 
       0.628434         136.768         73.1773 
       0.644267         130.022          69.327 
       0.660051         125.959         65.7654 
       0.675724         124.564          62.477 
       0.691403         121.203         59.4132 
       0.707174         117.283         56.5394 
       0.722871         115.066         53.8685 
        0.73838          112.32         51.3998 
       0.754018         105.549         49.0677 
       0.769845         104.921         46.8555 
        0.78569         101.909         44.7779 
       0.801365         99.0824         42.8469 
       0.817031         95.7532         41.0314 
       0.832809         94.0133         39.3098 
       0.848511         91.8655         37.6949 
       0.864097         90.2459         36.1821 
       0.879701         88.6267         34.7512 
       0.895507         85.2239         33.3809 
       0.911279         84.1931         32.0877 
        0.92691         81.5037          30.874 
       0.942635         79.9856         29.7166 
       0.958396         79.4869         28.6163 
       0.974128         77.6406          27.574 
       0.989692         75.8843         26.5941 
        1.00528          74.427         25.6607 
        1.02113         72.8136         24.7576 
        1.03692         72.4955         23.9016 
        1.05264         71.0402         23.0902 
        1.06832         68.8545         22.3179 
        1.08405         68.0775         21.5791 
        1.09979         67.6128         20.8734 
        1.11537         65.6509         20.2064 
        1.13105          64.293         19.5647 
        1.14679         63.4958         18.9485 
        1.16256         62.4025         18.3578 
        1.17828         61.7099         17.7942 
        1.19395         60.0901         17.2564 
         1.2097         60.2168         16.7381 
        1.22537         58.7828         16.2437 
          1.241          58.029         15.7708 
        1.25666         56.6213         15.3157 
        1.27241         56.4176         14.8764 
        1.28819         55.3345         14.4537 
        1.30392         54.5838         14.0487 
        1.31957         54.1501          13.661 
        1.33529         53.2398         13.2867 
        1.35108         52.2976         12.9249 
        1.36674           51.71         12.5792 
         1.3824         50.8595         12.2465 
        1.39811         50.0036         11.9248 
        1.41389         49.2787         11.6134 
        1.42964         48.8812         11.3137 
        1.44531         47.8411         11.0261 
        1.46101          47.583         10.7479 
        1.47667         46.9187         10.4802 
        1.49229         46.2156         10.2223 
        1.50793         45.7102         9.97287 
        1.52367         45.0944         9.73015 
        1.53953         44.6375          9.4939 
        1.55526         43.9928          9.2674 
        1.57092         43.3935         9.04925 
        1.58662         42.8104         8.83762 
        1.60235         42.3131         8.63237 
        1.61809         41.6936         8.43355 
        1.63369         41.2349         8.24278 
        1.64941         40.6936         8.05655 
        1.66519         40.0219         7.87543 
        1.68085         39.6767         7.70117 
        1.69652          39.042         7.53214 
        1.71228         38.8426         7.36725 
        1.72806         38.0977         7.20717 
        1.74368         37.7718         7.05346 
        1.75933         37.4051         6.90394 
        1.77505         37.1781         6.75806 
        1.79081         36.5702         6.61615 
         1.8065          35.913         6.47892 
        1.82218         35.5096         6.34572 
        1.83797         35.2534         6.21536 
        1.85367         34.7076         6.08939 
        1.86928         34.7311         5.96767 
        1.88497         33.9077         5.84862 
        1.90073          33.609         5.73239 
        1.91647         33.4192         5.61942 
        1.93218         33.3018         5.50975 
        1.94787          32.805         5.40316 
        1.96363         32.1848         5.29898 
        1.97935         31.9124         5.19777 
        1.99499         31.6958         5.09977 
        2.01064         31.2333         5.00417 
         2.0264         30.8484         4.91041 
        2.04216         30.6503         4.81911 
        2.05781         30.2748         4.73071 
        2.07353         29.9543         4.64422 
        2.08928         29.6266          4.5597 
        2.10499         29.3958         4.47752 
        2.12065         29.0236         4.39761 
        2.13633         28.7745         4.31958 
        2.15211         28.2765         4.24295 
        2.16785         28.0806         4.16839 
        2.18349         27.7574          4.0961 
        2.19916         27.4849         4.02537 
        2.21489          27.205         3.95607 
        2.23063         27.0681         3.88837 
         2.2463         26.7208         3.82255 
        2.26194         26.4316         3.75843 
        2.27765         26.0899         3.69544 
        2.29341         25.8341         3.63374 
        2.30914         25.5856         3.57358 
        2.32486         25.3164         3.51481 
        2.34061          25.127         3.45727 
        2.35635         24.7712         3.40107 
        2.37203         24.6027         3.34632 
        2.38768         24.4204         3.29288 
        2.40339         24.2227         3.24042 
        2.41914         23.8853         3.18899 
        2.43483         23.7716         3.13885 
         2.4505         23.3225         3.08987 
        2.46622          23.133         3.04177 
        2.48195         22.9086          2.9947 
        2.49759         22.5839         2.94887 
        2.51328         22.5039         2.90388 
        2.52906         22.3265         2.85955 
        2.54479         22.0511         2.81631 
        2.56049         21.9546         2.77405 
        2.57618         21.7793         2.73269 
        2.59189           21.34         2.69211 
        2.60758         21.2568         2.65243 
        2.62325         20.9991         2.61359 
        2.63898         20.8181         2.57539 
        2.65468          20.672         2.53804 
        2.67044         20.3638         2.50127 
        2.68618         20.2241         2.46531 
        2.70184         19.9986         2.43021 
        2.71755         19.8343          2.3957 
        2.73329         19.6176         2.36181 
        2.74897         19.5042         2.32868 
        2.76462          19.316         2.29626 
        2.78034         19.0462         2.26433 
        2.79607         18.9137         2.23297 
        2.81179         18.7199         2.20225 
        2.82749         18.5554         2.17213 
        2.84321         18.4365         2.14254 
        2.85893         18.1366         2.11352 
        2.87462         18.0544         2.08508 
        2.89033         17.9014         2.05714 
        2.90605         17.7031         2.02969 
        2.92176         17.4682         2.00275 
        2.93747         17.3481         1.97632 
        2.95318         17.2295         1.95035 
        2.96891         17.0068         1.92485 
        2.98456         16.9547         1.89991 
        3.00023         16.6862         1.87537 
        3.01596         16.5705          1.8512 
        3.03164         16.3953         1.82752 
        3.04738         16.2495         1.80418 
         3.0631         16.1616         1.78126 
        3.07883         16.0139         1.75874 
        3.09456         15.8765         1.73661 
        3.11026         15.7532          1.7149 
        3.12596         15.5451         1.69356 
        3.14163         15.4021         1.67263 
        3.15734         15.2728           1.652 
        3.17308         15.1844         1.63168 
        3.18879         14.9493         1.61175 
        3.20447         14.8933         1.59218 
         3.2202          14.749         1.57288 
         3.2359         14.6385         1.55394 
        3.25157         14.5336         1.53535 
        3.26729         14.3536           1.517 
        3.28304         14.2661         1.49893 
        3.29877         14.1891         1.48117 
        3.31446         14.0064         1.46373 
        3.33014         13.9103         1.44659 
        3.34585         13.7334          1.4297 
        3.36158         13.6338         1.41306 
        3.37727         13.5144         1.39673 
        3.39294         13.4228         1.38068 
        3.40867         13.2533         1.36482 
        3.42439         13.1706         1.34921 
        3.44008         13.0869         1.33389 
        3.45578         12.9094         1.31879 
        3.47153         12.8133         1.30388 
        3.48724         12.7586         1.28924 
        3.50292         12.6362         1.27485 
        3.51859         12.5132          1.2607 
        3.53431         12.3639         1.24671 
        3.55007         12.3013          1.2329 
        3.56577         12.1938         1.21935 
        3.58146         12.0562         1.20601 
        3.59719         11.9692         1.19285 
        3.61292         11.8839         1.17988 
        3.62859          11.762         1.16715 
        3.64429         11.6809         1.15459 
        3.66003         11.5723         1.14218 
        3.67578         11.4782         1.12995 
        3.69146         11.4045         1.11794 
        3.70712         11.2656         1.10614 
        3.72284         11.2162         1.09446 
        3.73853         11.0904         1.08296 
        3.75422         10.9941         1.07163 
        3.76993         10.8878         1.06045 
        3.78564         10.8149         1.04944 
        3.80137         10.7206         1.03856 
        3.81707          10.652         1.02786 
        3.83279         10.5501         1.01731 
        3.84853         10.4644         1.00688 
        3.86424         10.3713        0.996622 
        3.87992         10.3179        0.986521 
        3.89561         10.2182        0.976559 
        3.91134         10.1338        0.966714 
        3.92704         10.0456        0.957016 
        3.94273         9.96405        0.947461 
        3.95845         9.86936        0.938019 
        3.97418         9.78957        0.928704 
        3.98988         9.75019        0.919528 
        4.00554         9.64918          0.9105 
        4.02125         9.57211        0.901568 
        4.03698          9.4956        0.892742 
        4.05268         9.42501        0.884054 
        4.06839         9.33469        0.875476 
         4.0841         9.23794        0.867013 
        4.09983         9.18871        0.858651 
        4.11555         9.07808        0.850402 
        4.13124         9.03109        0.842285 
        4.14693         8.92997        0.834266 
        4.16266         8.88305        0.826333 
        4.17839         8.79152        0.818508 
        4.19408         8.75113        0.810802 
        4.20977         8.64364        0.803192 
        4.22551         8.59054        0.795662 
        4.24123         8.54755        0.788235 
        4.25691         8.47178        0.780924 
        4.27259         8.38571        0.773703 
        4.28831          8.3141        0.766559 
        4.30404         8.28819        0.759498 
        4.31974         8.19273        0.752541 
        4.33543         8.14624        0.745676 
        4.35116         8.04592        0.738879 
        4.36688         7.99387         0.73217 
        4.38255         7.94685        0.725569 
        4.39825         7.85473        0.719036 
        4.41398         7.81082        0.712569 
         4.4297         7.74517        0.706189 
        4.44541         7.69601        0.699888 
        4.46111         7.63266        0.693669 
        4.47683          7.5901        0.687521 
        4.49251         7.51467         0.68146 
        4.50819         7.44952        0.675474 
         4.5239         7.39828        0.669551 
        4.53962         7.33046        0.663691 
        4.55535         7.28089        0.657899 
        4.57106         7.23381        0.652184 
        4.58678          7.1798        0.646536 
         4.6025         7.12479        0.640953 
        4.61821         7.06683        0.635437 
        4.63391         7.01548        0.629994 
         4.6496         6.96249        0.624616 
        4.66532         6.90818        0.619292 
        4.68103         6.84732        0.614033 
        4.69673         6.78737         0.60884 
        4.71241         6.74376        0.603712 
        4.72811         6.70094        0.598635 
        4.74384         6.67432         0.59361 
        4.75955         6.61558         0.58865 
        4.77525         6.56437        0.583749 
        4.79096         6.52853        0.578898 
        4.80669         6.44785          0.5741 
         4.8224         6.42219        0.569362 
        4.83809         6.36378        0.564682 
        4.85379         6.31679        0.560052 
         4.8695         6.28147         0.55547 
        4.88521         6.22785        0.550942 
        4.90093         6.17299        0.546463 
        4.91663         6.13645        0.542038 
        4.93234         6.09175        0.537657 
        4.94807         6.03086        0.533321 
        4.96377         5.99876        0.529042 
        4.97943         5.94109        0.524818 
        4.99514         5.90918         0.52063 
        5.01086         5.87701        0.516484 
        5.02654         5.82509        0.512394 
        5.04227         5.79001        0.508336 
          5.058         5.73726         0.50432 
        5.07371         5.71153        0.500356 
        5.08942         5.65753        0.496433 
        5.10513         5.63102        0.492552 
        5.12084         5.58639        0.488711 
        5.13656         5.52839        0.484911 
        5.15225          5.5058        0.481158 
        5.16796         5.45313        0.477439 
        5.18369         5.42213        0.473755 
         5.1994         5.37971        0.470118 
        5.21509         5.34626        0.466521 
        5.23079         5.31952        0.462958 
        5.24649         5.26342        0.459436 
        5.26217         5.24946        0.455952 
        5.27788         5.19879        0.452499 
        5.29359         5.16215        0.449081 
        5.30933         5.13167        0.445694 
        5.32504         5.08831        0.442347 
        5.34073          5.0609        0.439039 
        5.35646         5.02128        0.435757 
        5.37218         4.98976        0.432509 
        5.38789         4.95074        0.429299 
        5.40357         4.91303        0.426125 
        5.41929         4.87578        0.422976 
        5.43502         4.84161        0.419858 
         5.4507         4.82554         0.41678 
        5.46639         4.79092        0.413732 
        5.48212         4.75594        0.410707 
        5.49786         4.72491        0.407709 
        5.51353         4.69335        0.404755 
        5.52921         4.65672        0.401828 
        5.54495         4.62235        0.398921 
        5.56066          4.5849        0.396046 
        5.57637         4.55744          0.3932 
        5.59207         4.52989        0.390384 
        5.60778         4.50024        0.387595 
        5.62346         4.46745        0.384837 
        5.63916         4.43551        0.382103 
        5.65487         4.41547        0.379394 
         5.6706         4.38397        0.376708 
        5.68633         4.35081        0.374048 
        5.70203         4.32057        0.371418 
        5.71773         4.29431        0.368814 
        5.73344         4.25939        0.366234 
        5.74916           4.247        0.363676 
        5.76486         4.19956        0.361146 
        5.78054         4.19925        0.358644 
        5.79626         4.15474        0.356159 
          5.812         4.13092        0.353694 
         5.8277         4.10751         0.35126 
        5.84339         4.07463         0.34885 
        5.85911         4.04881        0.346457 
        5.87484         4.02303        0.344086 
        5.89053         4.00242        0.341743 
        5.90623         3.97366        0.339421 
        5.92195         3.95107        0.337116 
        5.93767         3.92179        0.334833 
        5.95336         3.90124        0.332576 
        5.96905          3.8769         0.33034 
        5.98476         3.85159        0.328122 
        6.00048          3.8285        0.325923 
        6.01617         3.78911        0.323747 
        6.03185         3.77111        0.321594 
        6.04756          3.7479        0.319455 
        6.06331          3.7282        0.317332 
        6.07903         3.70342        0.315231 
        6.09473         3.68408        0.313152 
        6.11044         3.65868         0.31109 
        6.12616         3.63564        0.309047 
        6.14186         3.61536        0.307024 
        6.15755         3.59186        0.305019 
        6.17326         3.56865         0.30303 
        6.18898         3.54182        0.301059 
        6.20467         3.52242        0.299108 
        6.22036         3.49866        0.297175 
         6.2361         3.48527        0.295253 
         6.2518         3.47011        0.293352 
        6.26748         3.44105        0.291472 
        6.28319         3.41257        0.289603 
        6.29893         3.39838        0.287748 
        6.31463          3.3755        0.285914 
        6.33033         3.36717        0.284095 
        6.34604         3.33963        0.282291 
        6.36177         3.31831        0.280502 
        6.37747         3.30313        0.278731 
