# k  (h/Mpc)    Pcb(k)  (Mpc/h)^3    Pcb_linear(k) (Mpc/h)^3   ShotnoiseSubtracted = true
      0.0200456         17994.5         18392.1 
      0.0350414         13782.8         14421.3 
      0.0492313         11130.3         11426.1 
      0.0637834         9419.53         9291.22 
      0.0800726         7155.47         7018.62 
       0.096163         5280.17          5520.6 
       0.111083         4415.36         4673.17 
       0.126058         3914.21         3884.74 
       0.142273          3302.8         3161.16 
       0.158546         2993.55         2692.94 
        0.17375         2431.92         2342.95 
       0.188953         2330.81         2014.22 
       0.204907         2181.18          1743.6 
       0.220756         1911.62         1541.06 
        0.23588         1705.86          1368.8 
         0.2514            1484         1212.86 
       0.267535         1479.47         1081.67 
       0.283568         1344.29         971.971 
       0.299022         1269.84         877.718 
       0.314451         1210.13          795.79 
       0.330372         1113.36         723.567 
       0.346141         1060.36         660.533 
       0.361624         1015.42         605.391 
       0.377134         944.586         556.624 
       0.392932         911.568         512.679 
       0.408854          887.49         473.056 
       0.424564         826.802         437.961 
       0.440253         811.026         406.547 
       0.455999         779.459         378.144 
       0.471626         744.707         352.598 
        0.48727         717.384         329.382 
       0.502856         697.569         308.344 
       0.518488         688.257         289.089 
       0.534347         644.846         271.228 
       0.550082         626.401             255 
       0.565732         625.302         240.181 
       0.581496         588.621         226.446 
       0.597222         579.612         213.815 
       0.612804         566.183         202.253 
       0.628434          548.64         191.519 
       0.644267          533.67         181.442 
       0.660051         515.759         172.121 
       0.675724         512.709         163.514 
       0.691403         494.792         155.496 
       0.707174         478.432         147.975 
       0.722871         473.677         140.984 
        0.73838         464.779         134.523 
       0.754018          452.62          128.42 
       0.769845         442.662          122.63 
        0.78569         436.005         117.192 
       0.801365         423.908         112.139 
       0.817031         412.138         107.387 
       0.832809         408.492         102.881 
       0.848511         398.519         98.6549 
       0.864097         387.595         94.6956 
       0.879701         382.546         90.9505 
       0.895507         378.436         87.3643 
       0.911279         366.705         83.9797 
        0.92691         361.484         80.8031 
       0.942635         353.372          77.774 
       0.958396         343.813         74.8944 
       0.974128         338.995         72.1664 
       0.989692         334.136          69.602 
        1.00528         327.186          67.159 
        1.02113         324.828         64.7955 
        1.03692         315.752         62.5551 
        1.05264         312.961         60.4315 
        1.06832         304.808         58.4103 
        1.08405         299.875         56.4765 
        1.09979         295.285         54.6296 
        1.11537         289.699          52.884 
        1.13105         283.358         51.2045 
        1.14679          279.77         49.5918 
        1.16256         272.739         48.0458 
        1.17828         271.241          46.571 
        1.19395         265.195         45.1633 
         1.2097         262.534         43.8069 
        1.22537         255.614         42.5129 
          1.241         254.989         41.2753 
        1.25666         248.153         40.0841 
        1.27241          245.62         38.9344 
        1.28819         241.443         37.8281 
        1.30392         235.999         36.7681 
        1.31957         235.374         35.7536 
        1.33529         230.488         34.7738 
        1.35108         225.276         33.8269 
        1.36674         222.991         32.9222 
         1.3824          220.89         32.0515 
        1.39811         218.024         31.2095 
        1.41389         214.986         30.3946 
        1.42964         211.754         29.6103 
        1.44531         208.202         28.8575 
        1.46101         205.915         28.1294 
        1.47667         201.764         27.4287 
        1.49229         199.644         26.7538 
        1.50793         196.042         26.1009 
        1.52367         193.528         25.4657 
        1.53953         190.447         24.8474 
        1.55526         186.067         24.2546 
        1.57092         185.469         23.6836 
        1.58662         182.465         23.1298 
        1.60235         179.694         22.5926 
        1.61809         177.608         22.0722 
        1.63369         174.576         21.5729 
        1.64941         170.958         21.0856 
        1.66519         169.872         20.6115 
        1.68085         167.905         20.1554 
        1.69652         164.613         19.7131 
        1.71228          161.71         19.2815 
        1.72806         159.978         18.8625 
        1.74368         157.677         18.4603 
        1.75933         155.407         18.0689 
        1.77505         153.737         17.6871 
        1.79081         152.343         17.3157 
         1.8065         149.866         16.9566 
        1.82218         147.238          16.608 
        1.83797         146.174         16.2668 
        1.85367         143.832         15.9371 
        1.86928         141.664         15.6185 
        1.88497         139.571          15.307 
        1.90073         138.512         15.0028 
        1.91647         136.601         14.7071 
        1.93218         134.594         14.4201 
        1.94787         132.778         14.1411 
        1.96363         130.401         13.8685 
        1.97935         129.252         13.6036 
        1.99499         127.063         13.3471 
        2.01064         126.051         13.0969 
         2.0264         123.943         12.8515 
        2.04216         122.476         12.6125 
        2.05781         121.302         12.3812 
        2.07353          119.78         12.1548 
        2.08928         117.613         11.9336 
        2.10499         115.839         11.7185 
        2.12065         114.647         11.5094 
        2.13633         113.852         11.3052 
        2.15211         111.391         11.1046 
        2.16785         109.643         10.9095 
        2.18349         108.819         10.7203 
        2.19916         107.447         10.5352 
        2.21489         106.282         10.3538 
        2.23063         104.336         10.1766 
         2.2463         102.914         10.0044 
        2.26194         101.971         9.83653 
        2.27765         100.911         9.67169 
        2.29341         99.5551         9.51021 
        2.30914         98.3898         9.35275 
        2.32486         97.3536         9.19894 
        2.34061         95.9446         9.04835 
        2.35635         94.6768         8.90126 
        2.37203         93.5836         8.75796 
        2.38768         92.3216         8.61811 
        2.40339         91.6121         8.48081 
        2.41914         90.4185         8.34619 
        2.43483         89.0638         8.21497 
         2.4505         88.1785         8.08679 
        2.46622         86.9002         7.96091 
        2.48195         85.8872          7.8377 
        2.49759         84.8136         7.71776 
        2.51328         83.9518         7.60002 
        2.52906         82.4792         7.48399 
        2.54479         81.7973         7.37082 
        2.56049          80.874         7.26021 
        2.57618          79.903         7.15197 
        2.59189         78.9221         7.04578 
        2.60758         78.1987         6.94191 
        2.62325         76.9142         6.84026 
        2.63898         75.9238         6.74029 
        2.65468         75.4424         6.64254 
        2.67044         74.2322          6.5463 
        2.68618         73.3128          6.4522 
        2.70184         72.8932         6.36032 
        2.71755         72.1866            6.27 
        2.73329         70.9745          6.1813 
        2.74897         70.2409         6.09461 
        2.76462         69.3117         6.00977 
        2.78034         68.6857         5.92619 
        2.79607         67.5986         5.84412 
        2.81179         66.8796          5.7637 
        2.82749         66.1172         5.68488 
        2.84321         65.6888         5.60745 
        2.85893           64.73         5.53149 
        2.87462         63.8442         5.45706 
        2.89033         63.1303         5.38393 
        2.90605         62.4192         5.31209 
        2.92176         61.8693         5.24159 
        2.93747         61.2339          5.1724 
        2.95318         60.4373         5.10445 
        2.96891         59.9846         5.03769 
        2.98456         59.2493         4.97243 
        3.00023          58.544         4.90822 
        3.01596         58.0561         4.84494 
        3.03164         57.1774         4.78297 
        3.04738         56.6846         4.72189 
         3.0631         56.1324         4.66191 
        3.07883         55.4097         4.60296 
        3.09456         54.8601         4.54505 
        3.11026         54.0603         4.48821 
        3.12596         53.5607         4.43236 
        3.14163         53.0238         4.37759 
        3.15734         52.5312         4.32361 
        3.17308         51.9565         4.27042 
        3.18879         51.3723         4.21826 
        3.20447         50.5997         4.16705 
         3.2202         50.3595         4.11654 
         3.2359         49.6223         4.06695 
        3.25157         49.3016          4.0183 
        3.26729         48.7856         3.97029 
        3.28304         48.2548         3.92298 
        3.29877         47.6791          3.8765 
        3.31446         47.2829         3.83087 
        3.33014         46.8025         3.78602 
        3.34585         46.2128         3.74181 
        3.36158         45.8763         3.69825 
        3.37727         45.3897         3.65552 
        3.39294         44.8442          3.6135 
        3.40867         44.4573         3.57199 
        3.42439          43.985         3.53116 
        3.44008         43.5512         3.49104 
        3.45578         42.9933         3.45152 
        3.47153         42.5815         3.41252 
        3.48724         42.1712         3.37419 
        3.50292         41.8103         3.33654 
        3.51859         41.4242         3.29948 
        3.53431         40.9287         3.26287 
        3.55007         40.4618         3.22673 
        3.56577         40.2627         3.19128 
        3.58146         39.6987         3.15637 
        3.59719          39.284         3.12191 
        3.61292         38.8514         3.08797 
        3.62859         38.5697         3.05467 
        3.64429         38.3299         3.02179 
        3.66003         37.7598         2.98929 
        3.67578          37.333         2.95729 
        3.69146         37.0406         2.92587 
        3.70712         36.7596         2.89497 
        3.72284         36.2737          2.8644 
        3.73853         35.9604         2.83433 
        3.75422         35.5702         2.80467 
        3.76993         35.3318         2.77541 
        3.78564         35.0335         2.74659 
        3.80137         34.7223         2.71812 
        3.81707         34.3322         2.69012 
        3.83279         34.1499         2.66249 
        3.84853         33.6632          2.6352 
        3.86424         33.2831         2.60835 
        3.87992         33.0733         2.58191 
        3.89561         32.8111         2.55584 
        3.91134         32.3613         2.53008 
        3.92704         32.2272          2.5047 
        3.94273         31.8446         2.47969 
        3.95845         31.5631         2.45498 
        3.97418         31.3855          2.4306 
        3.98988         30.9952         2.40658 
        4.00554         30.6899         2.38295 
        4.02125         30.4416         2.35958 
        4.03698         30.1836         2.33648 
        4.05268         29.9677         2.31374 
        4.06839         29.6169         2.29129 
         4.0841         29.3663         2.26914 
        4.09983         29.1613         2.24726 
        4.11555         28.8525         2.22567 
        4.13124         28.5181         2.20442 
        4.14693         28.2394         2.18343 
        4.16266         28.0676         2.16267 
        4.17839         27.8065         2.14219 
        4.19408         27.5586         2.12203 
        4.20977         27.3472         2.10211 
        4.22551          27.165          2.0824 
        4.24123          26.833         2.06296 
        4.25691         26.6595         2.04383 
        4.27259         26.3963         2.02493 
        4.28831         26.0928         2.00623 
        4.30404         25.9215         1.98775 
        4.31974         25.7261         1.96955 
        4.33543         25.4591         1.95158 
        4.35116         25.2752         1.93379 
        4.36688         25.0593         1.91623 
        4.38255         24.8052         1.89895 
        4.39825         24.6268         1.88185 
        4.41398         24.3679         1.86493 
         4.4297          24.239         1.84823 
        4.44541         23.9115         1.83174 
        4.46111          23.765         1.81547 
        4.47683         23.6157         1.79938 
        4.49251         23.3365         1.78351 
        4.50819         23.1588         1.76784 
         4.5239         23.0088         1.75234 
        4.53962         22.7489         1.73701 
        4.55535         22.5659         1.72185 
        4.57106         22.3724         1.70689 
        4.58678         22.2391         1.69211 
         4.6025         22.0494          1.6775 
        4.61821         21.8726         1.66306 
        4.63391         21.6586         1.64881 
         4.6496         21.5158         1.63474 
        4.66532         21.2811         1.62081 
        4.68103         21.0928         1.60704 
        4.69673         20.9488         1.59345 
        4.71241         20.8296         1.58003 
        4.72811         20.6223         1.56674 
        4.74384         20.4443         1.55359 
        4.75955          20.295         1.54061 
        4.77525         20.0815         1.52778 
        4.79096         19.9601         1.51509 
        4.80669         19.8596         1.50253 
         4.8224          19.634         1.49013 
        4.83809         19.4453         1.47788 
        4.85379         19.2757         1.46577 
         4.8695         19.1425         1.45377 
        4.88521         18.9836         1.44192 
        4.90093         18.8818          1.4302 
        4.91663         18.6554         1.41862 
        4.93234         18.5325         1.40715 
        4.94807         18.4067          1.3958 
        4.96377         18.2794          1.3846 
        4.97943         18.1414         1.37355 
        4.99514         17.9322         1.36259 
        5.01086         17.8252         1.35174 
        5.02654         17.7044         1.34103 
        5.04227         17.5153         1.33041 
          5.058         17.3623          1.3199 
        5.07371         17.2806         1.30953 
        5.08942         17.1602         1.29926 
        5.10513         17.0241          1.2891 
        5.12084         16.8296         1.27905 
        5.13656         16.7344         1.26911 
        5.15225         16.6507         1.25928 
        5.16796         16.5055         1.24955 
        5.18369         16.3809         1.23991 
         5.1994          16.226         1.23039 
        5.21509          16.076         1.22098 
        5.23079         15.9908         1.21165 
        5.24649         15.8663         1.20243 
        5.26217         15.7454         1.19331 
        5.27788         15.5924         1.18428 
        5.29359         15.4817         1.17533 
        5.30933         15.3857         1.16647 
        5.32504         15.2552         1.15771 
        5.34073         15.1681         1.14905 
        5.35646         15.0438         1.14046 
        5.37218         14.9016         1.13196 
        5.38789         14.7688         1.12356 
        5.40357         14.6835         1.11525 
        5.41929         14.5861         1.10701 
        5.43502         14.4737         1.09885 
         5.4507         14.3651         1.09079 
        5.46639          14.237         1.08282 
        5.48212         14.1565          1.0749 
        5.49786         14.0347         1.06705 
        5.51353         13.9388         1.05932 
        5.52921         13.8467         1.05166 
        5.54495         13.7688         1.04405 
        5.56066          13.652         1.03653 
        5.57637         13.5551         1.02908 
        5.59207         13.4424         1.02171 
        5.60778          13.376         1.01441 
        5.62346         13.2686         1.00719 
        5.63916         13.1561         1.00004 
        5.65487         13.0547        0.992948 
         5.6706         12.9737        0.985919 
        5.68633         12.8888        0.978955 
        5.70203         12.8035        0.972073 
        5.71773         12.6823        0.965258 
        5.73344         12.5871        0.958505 
        5.74916         12.5167        0.951811 
        5.76486         12.4157        0.945189 
        5.78054         12.3459        0.938641 
        5.79626         12.2263        0.932136 
          5.812         12.1396        0.925686 
         5.8277         12.0475        0.919316 
        5.84339         12.0053        0.913006 
        5.85911         11.8731        0.906743 
        5.87484         11.8225         0.90054 
        5.89053         11.7424        0.894408 
        5.90623          11.642        0.888329 
        5.92195         11.5552        0.882297 
        5.93767         11.4658        0.876324 
        5.95336         11.4036        0.870415 
        5.96905         11.3305        0.864564 
        5.98476         11.2581        0.858758 
        6.00048         11.1433        0.853003 
        6.01617         11.0935        0.847309 
        6.03185         10.9952        0.841674 
        6.04756         10.9362        0.836076 
        6.06331         10.8723        0.830518 
        6.07903         10.7618        0.825022 
        6.09473         10.7144         0.81958 
        6.11044         10.6304        0.814182 
        6.12616         10.5691        0.808834 
        6.14186         10.4831         0.80354 
        6.15755         10.4078        0.798293 
        6.17326         10.3555        0.793089 
        6.18898         10.2855        0.787928 
        6.20467         10.2113        0.782823 
        6.22036         10.1353        0.777764 
         6.2361         10.0829        0.772735 
         6.2518         10.0185        0.767759 
        6.26748         9.93463        0.762838 
        6.28319         9.88438        0.757946 
        6.29893          9.8061        0.753093 
        6.31463         9.74124        0.748291 
        6.33033         9.67459        0.743532 
        6.34604         9.61225        0.738811 
        6.36177         9.53887        0.734127 
        6.37747         9.48617        0.729491 
