# k  (h/Mpc)    Pcb(k)  (Mpc/h)^3    Pcb_linear(k) (Mpc/h)^3   ShotnoiseSubtracted = true
      0.0200456         19530.6         19977.1 
      0.0350414         14933.6         15664.1 
      0.0492313         12062.6         12410.8 
      0.0637834           10226         10091.9 
      0.0800726         7767.26         7623.48 
       0.096163         5721.53         5996.35 
       0.111083         4789.54          5075.9 
       0.126058         4248.44         4219.52 
       0.142273         3588.71         3433.58 
       0.158546         3269.32         2925.01 
        0.17375         2655.22         2544.86 
       0.188953         2551.65          2187.8 
       0.204907         2388.37         1893.86 
       0.220756         2096.53         1673.87 
        0.23588         1874.82         1486.76 
         0.2514         1632.98         1317.39 
       0.267535         1632.56         1174.88 
       0.283568         1482.95         1055.73 
       0.299022          1403.1         953.358 
       0.314451         1337.55          864.37 
       0.330372         1229.09         785.923 
       0.346141         1180.85         717.456 
       0.361624         1131.01         657.563 
       0.377134         1052.97         604.593 
       0.392932         1015.06         556.861 
       0.408854         991.449         513.823 
       0.424564         920.724         475.703 
       0.440253         902.731         441.582 
       0.455999         873.577         410.731 
       0.471626           836.6         382.984 
        0.48727         805.161         357.767 
       0.502856         781.747         334.916 
       0.518488         772.507         314.003 
       0.534347         724.611         294.602 
       0.550082          706.81         276.976 
       0.565732         703.806          260.88 
       0.581496         664.264         245.961 
       0.597222         652.745         232.241 
       0.612804         639.772         219.683 
       0.628434         621.068         208.024 
       0.644267         604.127         197.078 
       0.660051         584.767         186.954 
       0.675724         580.827         177.606 
       0.691403         560.377         168.896 
       0.707174         542.573         160.727 
       0.722871         536.432         153.134 
        0.73838         525.448         146.116 
       0.754018         514.028         139.487 
       0.769845         503.455         133.198 
        0.78569         494.144         127.292 
       0.801365         481.308         121.803 
       0.817031         468.605         116.642 
       0.832809         464.447         111.747 
       0.848511          453.44         107.157 
       0.864097         439.813         102.856 
       0.879701         434.207         98.7884 
       0.895507         431.184         94.8933 
       0.911279         418.507         91.2169 
        0.92691         412.487         87.7666 
       0.942635          402.09         84.4764 
       0.958396         390.514         81.3486 
       0.974128         385.671         78.3856 
       0.989692         380.972         75.6002 
        1.00528         371.279         72.9466 
        1.02113         369.462         70.3795 
        1.03692         358.249          67.946 
        1.05264         355.692         65.6394 
        1.06832         345.737          63.444 
        1.08405         341.322         61.3436 
        1.09979         336.055         59.3375 
        1.11537         329.135         57.4414 
        1.13105          323.01         55.6172 
        1.14679         316.886         53.8656 
        1.16256         308.382         52.1863 
        1.17828         308.662         50.5844 
        1.19395         300.979         49.0554 
         1.2097         296.614         47.5821 
        1.22537         289.203         46.1766 
          1.241         287.668         44.8324 
        1.25666         281.053         43.5385 
        1.27241         277.637         42.2897 
        1.28819         273.042          41.088 
        1.30392         266.749         39.9367 
        1.31957         265.343         38.8348 
        1.33529           260.2         37.7705 
        1.35108         254.584          36.742 
        1.36674         250.427         35.7594 
         1.3824         248.956         34.8136 
        1.39811           244.6          33.899 
        1.41389         242.293         33.0139 
        1.42964         238.695          32.162 
        1.44531          234.48         31.3444 
        1.46101         230.878         30.5536 
        1.47667         227.664         29.7925 
        1.49229         224.751         29.0594 
        1.50793          220.03         28.3503 
        1.52367         217.763         27.6603 
        1.53953         214.106         26.9887 
        1.55526          209.32         26.3448 
        1.57092         208.648         25.7247 
        1.58662         205.513          25.123 
        1.60235         201.802         24.5396 
        1.61809         199.218         23.9744 
        1.63369         196.552         23.4321 
        1.64941         192.775         22.9027 
        1.66519          190.81         22.3878 
        1.68085         188.427         21.8924 
        1.69652         184.987         21.4119 
        1.71228         181.187         20.9432 
        1.72806         179.564         20.4881 
        1.74368         176.643         20.0511 
        1.75933         173.927         19.6261 
        1.77505         172.736         19.2114 
        1.79081         170.475          18.808 
         1.8065         167.387         18.4179 
        1.82218         165.023         18.0392 
        1.83797          163.64         17.6686 
        1.85367          160.79         17.3105 
        1.86928         157.987         16.9645 
        1.88497         156.026         16.6261 
        1.90073         154.637         16.2957 
        1.91647         152.712         15.9746 
        1.93218         150.465         15.6628 
        1.94787         147.451         15.3598 
        1.96363         145.147         15.0636 
        1.97935         144.666         14.7759 
        1.99499         141.927         14.4973 
        2.01064         140.582         14.2255 
         2.0264         138.701          13.959 
        2.04216         136.727         13.6995 
        2.05781          134.98         13.4482 
        2.07353         133.133         13.2023 
        2.08928         131.268          12.962 
        2.10499         129.396         12.7284 
        2.12065         127.563         12.5013 
        2.13633         126.688         12.2794 
        2.15211         124.172         12.0616 
        2.16785          122.55         11.8497 
        2.18349         121.429         11.6441 
        2.19916         119.635         11.4431 
        2.21489          118.56         11.2461 
        2.23063         116.355         11.0536 
         2.2463         114.622         10.8665 
        2.26194         113.189         10.6842 
        2.27765         112.271         10.5052 
        2.29341         110.728         10.3298 
        2.30914         109.643         10.1588 
        2.32486         107.925         9.99169 
        2.34061         106.459         9.82812 
        2.35635         105.063         9.66836 
        2.37203         104.155         9.51271 
        2.38768         102.382         9.36081 
        2.40339          101.52         9.21168 
        2.41914         100.225         9.06545 
        2.43483         99.0471         8.92292 
         2.4505         98.0336         8.78369 
        2.46622         96.7154         8.64696 
        2.48195         95.4385         8.51314 
        2.49759         94.2461         8.38286 
        2.51328         93.4378         8.25498 
        2.52906         91.9773         8.12895 
        2.54479         91.0091         8.00603 
        2.56049         90.0875         7.88589 
        2.57618         88.8517         7.76832 
        2.59189         87.9997         7.65297 
        2.60758         86.8086         7.54015 
        2.62325         85.4958         7.42974 
        2.63898         84.3551         7.32116 
        2.65468          83.894         7.21498 
        2.67044         82.6741         7.11045 
        2.68618         81.6501         7.00824 
        2.70184         81.1406         6.90844 
        2.71755         80.1597         6.81034 
        2.73329         79.0229           6.714 
        2.74897         78.1887         6.61983 
        2.76462         77.0952         6.52768 
        2.78034         76.5601          6.4369 
        2.79607         75.2016         6.34776 
        2.81179         74.5484         6.26041 
        2.82749         73.5796          6.1748 
        2.84321         73.0477         6.09069 
        2.85893         72.1071         6.00818 
        2.87462         71.1657         5.92734 
        2.89033         70.3312         5.84791 
        2.90605         69.5456         5.76987 
        2.92176         68.6827          5.6933 
        2.93747         68.1074         5.61815 
        2.95318         67.0897         5.54435 
        2.96891         66.6334         5.47183 
        2.98456         65.8923         5.40094 
        3.00023         65.1054          5.3312 
        3.01596          64.255         5.26247 
        3.03164         63.6994         5.19516 
        3.04738         63.0595         5.12882 
         3.0631         62.2869         5.06366 
        3.07883         61.6919         4.99964 
        3.09456         61.1468         4.93673 
        3.11026          60.299           4.875 
        3.12596         59.5319         4.81433 
        3.14163         58.9363         4.75484 
        3.15734         58.3036         4.69621 
        3.17308         57.8183         4.63843 
        3.18879         57.0934         4.58178 
        3.20447         56.4621         4.52616 
         3.2202         56.0666          4.4713 
         3.2359         55.1856         4.41743 
        3.25157         54.6816         4.36459 
        3.26729         54.2585         4.31244 
        3.28304         53.7766         4.26105 
        3.29877         52.9232         4.21057 
        3.31446         52.4711         4.16101 
        3.33014         52.0932         4.11229 
        3.34585         51.2428         4.06428 
        3.36158         50.8972         4.01696 
        3.37727          50.482         3.97054 
        3.39294          49.794          3.9249 
        3.40867         49.4568         3.87982 
        3.42439         48.8748         3.83546 
        3.44008         48.3846         3.79189 
        3.45578         47.7424         3.74896 
        3.47153         47.4088          3.7066 
        3.48724         46.9085         3.66497 
        3.50292         46.5838         3.62408 
        3.51859         46.1429         3.58383 
        3.53431         45.6236         3.54406 
        3.55007         45.0838         3.50481 
        3.56577          44.916          3.4663 
        3.58146         44.2361         3.42838 
        3.59719         43.8288         3.39095 
        3.61292         43.3708         3.35409 
        3.62859         42.8856         3.31791 
        3.64429         42.6215          3.2822 
        3.66003         42.0989         3.24691 
        3.67578          41.682         3.21214 
        3.69146         41.3346         3.17802 
        3.70712         40.8042         3.14446 
        3.72284         40.3583         3.11125 
        3.73853         40.0826         3.07858 
        3.75422          39.602         3.04637 
        3.76993         39.1668         3.01459 
        3.78564         38.8629         2.98328 
        3.80137         38.5975         2.95237 
        3.81707         38.2434         2.92195 
        3.83279         37.8447         2.89194 
        3.84853         37.4801          2.8623 
        3.86424          37.121         2.83314 
        3.87992          36.788         2.80442 
        3.89561         36.5203          2.7761 
        3.91134         36.0249         2.74812 
        3.92704         35.7371         2.72055 
        3.94273         35.4297         2.69338 
        3.95845         35.1521         2.66654 
        3.97418         34.9067         2.64006 
        3.98988         34.4449         2.61398 
        4.00554         34.2131         2.58831 
        4.02125         33.8969         2.56292 
        4.03698         33.5857         2.53783 
        4.05268          33.278         2.51314 
        4.06839         33.0009         2.48875 
         4.0841         32.6223         2.46469 
        4.09983         32.4633         2.44092 
        4.11555         32.0953         2.41747 
        4.13124         31.8183         2.39439 
        4.14693         31.4986          2.3716 
        4.16266         31.2945         2.34905 
        4.17839         30.9515          2.3268 
        4.19408         30.6191          2.3049 
        4.20977         30.4085         2.28327 
        4.22551         30.1585         2.26186 
        4.24123         29.8607         2.24075 
        4.25691         29.5978         2.21996 
        4.27259         29.3393         2.19943 
        4.28831         29.1069         2.17913 
        4.30404         28.8571         2.15905 
        4.31974          28.502         2.13928 
        4.33543         28.3012         2.11976 
        4.35116         28.0243         2.10044 
        4.36688          27.877         2.08137 
        4.38255         27.6261          2.0626 
        4.39825         27.3634         2.04403 
        4.41398         27.1509         2.02565 
         4.4297          26.862         2.00751 
        4.44541         26.6433          1.9896 
        4.46111         26.3612         1.97192 
        4.47683         26.2412         1.95444 
        4.49251         25.9715         1.93721 
        4.50819         25.7631         1.92019 
         4.5239         25.5306         1.90336 
        4.53962         25.3356          1.8867 
        4.55535         25.1332         1.87023 
        4.57106         24.8856         1.85399 
        4.58678         24.7719         1.83793 
         4.6025         24.5439         1.82206 
        4.61821         24.3301         1.80638 
        4.63391          24.072         1.79091 
         4.6496         23.8993         1.77562 
        4.66532         23.6618         1.76049 
        4.68103         23.4887         1.74554 
        4.69673         23.3605         1.73077 
        4.71241         23.1963          1.7162 
        4.72811         22.9258         1.70176 
        4.74384         22.7542         1.68748 
        4.75955         22.5601         1.67338 
        4.77525         22.3316         1.65945 
        4.79096         22.2429         1.64566 
        4.80669          22.058         1.63202 
         4.8224         21.8676         1.61855 
        4.83809         21.6713         1.60524 
        4.85379         21.4703         1.59208 
         4.8695           21.31         1.57906 
        4.88521         21.1226         1.56618 
        4.90093         20.9521         1.55345 
        4.91663         20.7859         1.54087 
        4.93234         20.6277         1.52842 
        4.94807         20.4567         1.51609 
        4.96377         20.3117         1.50393 
        4.97943          20.161         1.49192 
        4.99514         19.9737         1.48001 
        5.01086         19.8397         1.46823 
        5.02654         19.6779          1.4566 
        5.04227         19.5213         1.44507 
          5.058         19.3281         1.43365 
        5.07371           19.22         1.42238 
        5.08942         19.0319         1.41123 
        5.10513         18.9104          1.4002 
        5.12084         18.7388         1.38928 
        5.13656         18.6252         1.37847 
        5.15225         18.4941         1.36781 
        5.16796         18.3079         1.35723 
        5.18369         18.2168         1.34676 
         5.1994         18.0691         1.33642 
        5.21509         17.9108          1.3262 
        5.23079         17.7688         1.31607 
        5.24649         17.6362         1.30605 
        5.26217           17.53         1.29615 
        5.27788         17.3823         1.28634 
        5.29359         17.2147         1.27662 
        5.30933         17.0788         1.26699 
        5.32504         16.9769         1.25748 
        5.34073         16.8698         1.24807 
        5.35646         16.7275         1.23874 
        5.37218          16.584         1.22951 
        5.38789         16.4661         1.22038 
        5.40357         16.3583         1.21136 
        5.41929          16.247         1.20241 
        5.43502         16.1027         1.19355 
         5.4507         15.9931          1.1848 
        5.46639         15.8449         1.17613 
        5.48212         15.7066         1.16753 
        5.49786         15.5945         1.15901 
        5.51353         15.5015         1.15061 
        5.52921         15.4209         1.14229 
        5.54495         15.3007         1.13403 
        5.56066          15.158         1.12586 
        5.57637         15.0649         1.11776 
        5.59207          14.954         1.10976 
        5.60778         14.8434         1.10183 
        5.62346         14.7317         1.09399 
        5.63916         14.6596         1.08622 
        5.65487         14.5212         1.07852 
         5.6706         14.4052         1.07088 
        5.68633         14.3152         1.06332 
        5.70203         14.2236         1.05584 
        5.71773         14.1086         1.04844 
        5.73344         14.0231         1.04111 
        5.74916         13.8984         1.03384 
        5.76486         13.7995         1.02664 
        5.78054         13.7248         1.01953 
        5.79626         13.6187         1.01247 
          5.812         13.4941         1.00546 
         5.8277         13.4135        0.998541 
        5.84339         13.3185        0.991688 
        5.85911          13.203        0.984885 
        5.87484         13.1429        0.978148 
        5.89053         13.0653        0.971486 
        5.90623         12.9513        0.964884 
        5.92195         12.8405        0.958332 
        5.93767         12.7453        0.951844 
        5.95336         12.6654        0.945426 
        5.96905         12.5925        0.939071 
        5.98476         12.4895        0.932764 
        6.00048         12.4009        0.926514 
        6.01617         12.3355        0.920329 
        6.03185         12.2634        0.914208 
        6.04756         12.1541        0.908128 
        6.06331         12.0752        0.902091 
        6.07903         11.9724        0.896121 
        6.09473         11.9103         0.89021 
        6.11044         11.8244        0.884347 
        6.12616         11.7257        0.878539 
        6.14186         11.6668        0.872788 
        6.15755         11.5677        0.867088 
        6.17326         11.5072        0.861436 
        6.18898         11.4317        0.855831 
        6.20467         11.3504        0.850286 
        6.22036         11.2611         0.84479 
         6.2361         11.1861        0.839328 
         6.2518         11.0967        0.833923 
        6.26748         11.0499        0.828578 
        6.28319         10.9624        0.823265 
        6.29893         10.8854        0.817994 
        6.31463          10.815        0.812777 
        6.33033         10.7434        0.807608 
        6.34604         10.6892        0.802481 
        6.36177         10.5949        0.797392 
        6.37747         10.5217        0.792358 
