# k  (h/Mpc)    Pcb(k)  (Mpc/h)^3    Pcb_linear(k) (Mpc/h)^3   ShotnoiseSubtracted = true
      0.0200456         11911.7           12068 
      0.0350414         9682.21         9462.53 
      0.0492313         7372.07         7497.24 
      0.0637834         5843.79         6096.45 
      0.0800726         4421.85         4605.28 
       0.096163          3699.1         3622.35 
       0.111083         3162.01         3066.31 
       0.126058         2517.51         2548.98 
       0.142273         2120.39          2074.2 
       0.158546         1823.56         1766.97 
        0.17375         1630.68         1537.33 
       0.188953         1478.75         1321.63 
       0.204907         1256.95         1144.06 
       0.220756          1143.6         1011.17 
        0.23588          1026.3         898.138 
         0.2514         917.051         795.822 
       0.267535         885.728         709.738 
       0.283568         779.942         637.761 
       0.299022         746.331         575.916 
       0.314451         757.487         522.159 
       0.330372         652.739          474.77 
       0.346141         605.589          433.41 
       0.361624         579.825         397.228 
       0.377134         545.579          365.23 
       0.392932         528.844         336.395 
       0.408854         502.471         310.397 
       0.424564         486.799         287.368 
       0.440253         442.368         266.756 
       0.455999         424.282         248.119 
       0.471626         427.038         231.357 
        0.48727         404.961         216.124 
       0.502856         373.511          202.32 
       0.518488         374.016         189.686 
       0.534347         347.951         177.967 
       0.550082         337.677         167.319 
       0.565732         335.455         157.595 
       0.581496         320.839         148.583 
       0.597222         312.102         140.295 
       0.612804         304.666         132.709 
       0.628434         291.814         125.666 
       0.644267          279.67         119.054 
       0.660051         274.819         112.937 
       0.675724         272.479          107.29 
       0.691403         263.933         102.029 
       0.707174         254.915         97.0937 
       0.722871         250.905         92.5071 
        0.73838         249.044         88.2675 
       0.754018         236.335         84.2628 
       0.769845         235.468         80.4637 
        0.78569         229.971         76.8959 
       0.801365         224.645           73.58 
       0.817031         218.665         70.4622 
       0.832809         215.664         67.5057 
       0.848511         209.992         64.7325 
       0.864097         205.019         62.1347 
       0.879701         203.977         59.6773 
       0.895507         198.562         57.3242 
       0.911279         192.784         55.1034 
        0.92691         190.591         53.0191 
       0.942635         188.662         51.0315 
       0.958396         184.331         49.1421 
       0.974128         180.258         47.3521 
       0.989692          175.25         45.6694 
        1.00528         173.991         44.0665 
        1.02113         170.434         42.5157 
        1.03692         167.654         41.0457 
        1.05264         165.275         39.6522 
        1.06832         163.014          38.326 
        1.08405         159.537         37.0572 
        1.09979         158.685         35.8453 
        1.11537         154.766         34.6999 
        1.13105         152.987         33.5979 
        1.14679         150.458         32.5398 
        1.16256         148.268         31.5253 
        1.17828         146.158         30.5576 
        1.19395          142.41          29.634 
         1.2097         141.925          28.744 
        1.22537         139.568         27.8949 
          1.241         137.825         27.0829 
        1.25666         134.182         26.3012 
        1.27241         131.485         25.5469 
        1.28819          130.49          24.821 
        1.30392         127.926         24.1255 
        1.31957         126.007         23.4598 
        1.33529         124.659         22.8169 
        1.35108         122.773         22.1956 
        1.36674          120.75         21.6019 
         1.3824         120.284         21.0306 
        1.39811         116.832         20.4781 
        1.41389         116.179         19.9435 
        1.42964         113.753         19.4288 
        1.44531         112.403         18.9349 
        1.46101         110.698         18.4572 
        1.47667         110.115         17.9974 
        1.49229         108.682         17.5546 
        1.50793         106.507         17.1262 
        1.52367         105.334         16.7093 
        1.53953         103.534         16.3036 
        1.55526         102.547         15.9147 
        1.57092         101.653         15.5401 
        1.58662         100.033         15.1766 
        1.60235         98.1761         14.8242 
        1.61809         97.5097         14.4827 
        1.63369         95.8542         14.1551 
        1.64941         95.5999         13.8353 
        1.66519         93.4792         13.5243 
        1.68085         92.4538          13.225 
        1.69652         90.6365         12.9348 
        1.71228          90.018         12.6516 
        1.72806         88.6701         12.3767 
        1.74368         87.3548         12.1127 
        1.75933         86.5084          11.856 
        1.77505         85.7017         11.6054 
        1.79081         84.2002         11.3617 
         1.8065         83.5845         11.1261 
        1.82218         81.9727         10.8974 
        1.83797         81.5464         10.6735 
        1.85367         80.1044         10.4572 
        1.86928         79.2911         10.2481 
        1.88497         78.5546         10.0437 
        1.90073         77.4825         9.84409 
        1.91647         76.0313          9.6501 
        1.93218         75.3692         9.46175 
        1.94787         74.5296         9.27872 
        1.96363         73.4254         9.09981 
        1.97935         72.8158           8.926 
        1.99499         71.8487         8.75771 
        2.01064         70.9123         8.59353 
         2.0264         69.6757         8.43253 
        2.04216         69.1325         8.27574 
        2.05781         68.2938         8.12394 
        2.07353         67.3948          7.9754 
        2.08928           66.67         7.83026 
        2.10499         65.7269         7.68913 
        2.12065         65.2886         7.55191 
        2.13633         64.4768         7.41791 
        2.15211         63.5111         7.28631 
        2.16785         62.4902         7.15828 
        2.18349          61.958         7.03413 
        2.19916         61.1376         6.91266 
        2.21489         60.4419         6.79367 
        2.23063         59.5755          6.6774 
         2.2463         59.0472         6.56437 
        2.26194         58.4564         6.45425 
        2.27765         57.5963         6.34609 
        2.29341         56.8431         6.24014 
        2.30914          56.072         6.13682 
        2.32486         55.4521          6.0359 
        2.34061         55.1239         5.93709 
        2.35635         54.1534         5.84058 
        2.37203         53.7896         5.74655 
        2.38768         53.0263         5.65479 
        2.40339         52.4117          5.5647 
        2.41914         51.8952         5.47637 
        2.43483         51.2461         5.39026 
         2.4505         50.7482         5.30616 
        2.46622         50.1618         5.22356 
        2.48195         49.5155         5.14272 
        2.49759          48.922         5.06402 
        2.51328         48.5216         4.98676 
        2.52906         47.8539         4.91063 
        2.54479          47.319         4.83638 
        2.56049         46.6787          4.7638 
        2.57618         46.2072         4.69278 
        2.59189         45.8402          4.6231 
        2.60758         45.0997         4.55494 
        2.62325         44.6401         4.48825 
        2.63898         44.1915         4.42265 
        2.65468         43.8319         4.35851 
        2.67044         43.2532         4.29537 
        2.68618         42.9384         4.23362 
        2.70184         42.2349         4.17333 
        2.71755         41.9453         4.11407 
        2.73329         41.3228         4.05587 
        2.74897         40.9977         3.99899 
        2.76462         40.5089         3.94332 
        2.78034         40.0418         3.88848 
        2.79607         39.6221         3.83463 
        2.81179         39.2332         3.78186 
        2.82749         38.7921         3.73015 
        2.84321         38.3335         3.67934 
        2.85893          37.901         3.62949 
        2.87462         37.3967         3.58066 
        2.89033         37.1867         3.53268 
        2.90605         36.6609         3.48553 
        2.92176         36.3584         3.43928 
        2.93747         36.0555         3.39388 
        2.95318         35.6507          3.3493 
        2.96891         35.2913         3.30549 
        2.98456         34.9615         3.26266 
        3.00023         34.5071         3.22053 
        3.01596         34.1903         3.17902 
        3.03164         33.8582         3.13835 
        3.04738         33.5274         3.09828 
         3.0631         33.2259         3.05892 
        3.07883         32.8017         3.02024 
        3.09456         32.3315         2.98224 
        3.11026         32.0985         2.94495 
        3.12596         31.7954          2.9083 
        3.14163          31.422         2.87236 
        3.15734         31.1156         2.83694 
        3.17308         30.8283         2.80204 
        3.18879         30.4766         2.76782 
        3.20447         30.1976         2.73422 
         3.2202         29.9129         2.70107 
         3.2359         29.5575         2.66854 
        3.25157         29.3641         2.63661 
        3.26729         28.9812         2.60511 
        3.28304         28.6551         2.57407 
        3.29877         28.3213         2.54357 
        3.31446         28.0938         2.51363 
        3.33014         27.8354          2.4842 
        3.34585         27.5775          2.4552 
        3.36158         27.2617         2.42661 
        3.37727         27.0489         2.39857 
        3.39294         26.7432           2.371 
        3.40867         26.4564         2.34377 
        3.42439         26.2801         2.31697 
        3.44008         25.9987         2.29065 
        3.45578         25.8095         2.26472 
        3.47153         25.4942         2.23913 
        3.48724         25.1894         2.21398 
        3.50292         24.9864         2.18928 
        3.51859         24.6932         2.16496 
        3.53431         24.4384         2.14094 
        3.55007         24.2172         2.11723 
        3.56577         24.0268         2.09396 
        3.58146         23.7796         2.07106 
        3.59719         23.6063         2.04845 
        3.61292         23.3271         2.02618 
        3.62859         23.1538         2.00432 
        3.64429         22.8671         1.98275 
        3.66003         22.7034         1.96143 
        3.67578         22.5117         1.94043 
        3.69146         22.3306         1.91982 
        3.70712         22.0464         1.89954 
        3.72284         21.8782         1.87948 
        3.73853         21.6981         1.85975 
        3.75422         21.3324         1.84029 
        3.76993         21.2342         1.82109 
        3.78564         21.0411         1.80218 
        3.80137         20.8498          1.7835 
        3.81707         20.7062         1.76513 
        3.83279         20.4793           1.747 
        3.84853         20.2841         1.72909 
        3.86424         20.0732         1.71147 
        3.87992         19.8841         1.69413 
        3.89561         19.7409         1.67702 
        3.91134         19.5148         1.66011 
        3.92704         19.3587         1.64346 
        3.94273         19.2027         1.62705 
        3.95845         19.0051         1.61084 
        3.97418          18.798         1.59484 
        3.98988         18.6981         1.57908 
        4.00554         18.5639         1.56358 
        4.02125         18.3221         1.54824 
        4.03698         18.1412         1.53308 
        4.05268          18.007         1.51816 
        4.06839         17.8307         1.50343 
         4.0841         17.6668          1.4889 
        4.09983          17.467         1.47454 
        4.11555         17.3229         1.46038 
        4.13124         17.2109         1.44643 
        4.14693         17.0497         1.43266 
        4.16266         17.0004         1.41904 
        4.17839         16.7545          1.4056 
        4.19408         16.5481         1.39237 
        4.20977         16.4496          1.3793 
        4.22551         16.2766         1.36637 
        4.24123         16.1748         1.35362 
        4.25691         15.9983         1.34106 
        4.27259         15.9006         1.32866 
        4.28831         15.7642         1.31639 
        4.30404         15.6176         1.30427 
        4.31974         15.4922         1.29232 
        4.33543         15.3588         1.28053 
        4.35116         15.2245         1.26886 
        4.36688         15.0935         1.25734 
        4.38255         14.9562           1.246 
        4.39825         14.7811         1.23478 
        4.41398         14.7271         1.22368 
         4.4297         14.5727         1.21272 
        4.44541         14.4187          1.2019 
        4.46111         14.3426         1.19122 
        4.47683          14.153         1.18066 
        4.49251         14.0693         1.17025 
        4.50819         13.9569         1.15997 
         4.5239         13.8448          1.1498 
        4.53962         13.7255         1.13974 
        4.55535         13.5998         1.12979 
        4.57106         13.5105         1.11998 
        4.58678         13.3852         1.11028 
         4.6025          13.267         1.10069 
        4.61821         13.1829         1.09122 
        4.63391         13.0524         1.08187 
         4.6496         12.9132         1.07264 
        4.66532         12.7848          1.0635 
        4.68103         12.7405         1.05446 
        4.69673         12.6333         1.04555 
        4.71241         12.5362         1.03674 
        4.72811          12.417         1.02802 
        4.74384         12.3069         1.01939 
        4.75955         12.2094         1.01087 
        4.77525         12.1141         1.00246 
        4.79096         12.0263        0.994128 
        4.80669         11.9297        0.985889 
         4.8224         11.8088        0.977752 
        4.83809         11.7377        0.969715 
        4.85379         11.6473        0.961764 
         4.8695         11.5344        0.953896 
        4.88521         11.4616        0.946119 
        4.90093         11.3479        0.938427 
        4.91663         11.2975        0.930828 
        4.93234         11.2226        0.923305 
        4.94807          11.101         0.91586 
        4.96377         11.0302        0.908511 
        4.97943         10.9524        0.901257 
        4.99514         10.8211        0.894065 
        5.01086         10.7352        0.886945 
        5.02654         10.6553        0.879922 
        5.04227         10.5727        0.872953 
          5.058         10.5234        0.866057 
        5.07371         10.4269        0.859248 
        5.08942         10.3384        0.852512 
        5.10513         10.2719        0.845847 
        5.12084         10.1895        0.839251 
        5.13656         10.1325        0.832726 
        5.15225         10.0214        0.826281 
        5.16796         9.94854        0.819894 
        5.18369         9.88201        0.813569 
         5.1994         9.79749        0.807322 
        5.21509         9.72558        0.801146 
        5.23079         9.64901        0.795027 
        5.24649         9.56896        0.788977 
        5.26217         9.49321        0.782994 
        5.27788         9.43495        0.777065 
        5.29359         9.36133        0.771196 
        5.30933         9.29632        0.765379 
        5.32504          9.2355        0.759632 
        5.34073         9.16119        0.753951 
        5.35646         9.08726        0.748315 
        5.37218         9.03072        0.742737 
        5.38789         8.96746        0.737224 
        5.40357         8.88392        0.731774 
        5.41929         8.82431        0.726366 
        5.43502         8.77257        0.721012 
         5.4507         8.69262        0.715726 
        5.46639         8.62077        0.710491 
        5.48212         8.57047        0.705297 
        5.49786         8.50177        0.700148 
        5.51353         8.45469        0.695076 
        5.52921         8.38553        0.690049 
        5.54495         8.30533        0.685057 
        5.56066         8.26825         0.68012 
        5.57637         8.19029        0.675233 
        5.59207         8.14234        0.670397 
        5.60778          8.0853        0.665607 
        5.62346         8.02054        0.660871 
        5.63916         7.96955        0.656176 
        5.65487         7.90989        0.651524 
         5.6706           7.852        0.646912 
        5.68633          7.7879        0.642343 
        5.70203           7.729        0.637827 
        5.71773         7.68673        0.633356 
        5.73344         7.64225        0.628925 
        5.74916          7.6064        0.624532 
        5.76486         7.52655        0.620187 
        5.78054         7.47038        0.615891 
        5.79626         7.40823        0.611622 
          5.812         7.36461         0.60739 
         5.8277         7.32155        0.603211 
        5.84339         7.26514        0.599071 
        5.85911         7.21743        0.594961 
        5.87484         7.17177        0.590891 
        5.89053         7.10179        0.586867 
        5.90623          7.0628        0.582879 
        5.92195         7.02775         0.57892 
        5.93767          6.9781        0.575001 
        5.95336          6.9196        0.571124 
        5.96905         6.88725        0.567285 
        5.98476         6.83975        0.563475 
        6.00048         6.78659          0.5597 
        6.01617         6.73734        0.555963 
        6.03185         6.70403        0.552266 
        6.04756          6.6534        0.548593 
        6.06331          6.6015        0.544946 
        6.07903         6.56512        0.541339 
        6.09473         6.52203        0.537769 
        6.11044         6.48245        0.534227 
        6.12616         6.43267        0.530718 
        6.14186         6.39005        0.527244 
        6.15755         6.33643        0.523801 
        6.17326         6.30554        0.520386 
        6.18898         6.25786           0.517 
        6.20467         6.22635        0.513651 
        6.22036         6.18198        0.510331 
         6.2361         6.14351        0.507031 
         6.2518         6.09113        0.503766 
        6.26748         6.04676        0.500537 
        6.28319         6.01984        0.497328 
        6.29893         5.97595        0.494143 
        6.31463         5.94273        0.490992 
        6.33033         5.90113         0.48787 
        6.34604         5.85972        0.484772 
        6.36177         5.82981        0.481698 
        6.37747         5.79012        0.478657 
