# k  (h/Mpc)    Pcb(k)  (Mpc/h)^3    Pcb_linear(k) (Mpc/h)^3   ShotnoiseSubtracted = true
      0.0200456         13441.5         13623.6 
      0.0350414         10938.2         10682.3 
      0.0492313         8302.76         8463.68 
      0.0637834         6575.79         6882.31 
      0.0800726         4974.13         5198.93 
       0.096163         4175.06         4089.29 
       0.111083         3568.23         3461.58 
       0.126058         2838.85         2877.56 
       0.142273          2400.5         2341.57 
       0.158546         2060.99         1994.75 
        0.17375         1847.09          1735.5 
       0.188953          1684.8            1492 
       0.204907         1435.86         1291.54 
       0.220756         1305.58         1141.52 
        0.23588         1172.46         1013.91 
         0.2514         1049.88         898.408 
       0.267535         1014.52         801.227 
       0.283568         895.514         719.972 
       0.299022         857.529         650.155 
       0.314451         876.131         589.468 
       0.330372         757.431          535.97 
       0.346141         701.435         489.278 
       0.361624         672.358         448.433 
       0.377134         635.682          412.31 
       0.392932         614.842         379.759 
       0.408854         584.549         350.408 
       0.424564         567.839         324.412 
       0.440253         518.217         301.143 
       0.455999         496.808         280.103 
       0.471626         502.371         261.181 
        0.48727         475.678         243.984 
       0.502856         441.352           228.4 
       0.518488         440.374         214.138 
       0.534347         411.045         200.908 
       0.550082         397.291         188.887 
       0.565732          394.43          177.91 
       0.581496         380.659         167.736 
       0.597222         369.897          158.38 
       0.612804         361.799         149.816 
       0.628434         346.235         141.865 
       0.644267         332.502           134.4 
       0.660051         327.187         127.496 
       0.675724         323.465         121.121 
       0.691403         313.982         115.181 
       0.707174         302.612          109.61 
       0.722871         297.592         104.432 
        0.73838         295.197         99.6457 
       0.754018         281.929         95.1248 
       0.769845         280.271         90.8359 
        0.78569         274.081         86.8082 
       0.801365         267.577         83.0648 
       0.817031         261.295         79.5452 
       0.832809         257.832         76.2076 
       0.848511         250.719         73.0769 
       0.864097         244.816         70.1442 
       0.879701          243.51           67.37 
       0.895507         236.846         64.7137 
       0.911279         230.093         62.2066 
        0.92691         228.035         59.8536 
       0.942635         226.346         57.6098 
       0.958396         220.469         55.4767 
       0.974128          215.95         53.4561 
       0.989692         209.168         51.5565 
        1.00528         208.189         49.7469 
        1.02113         204.642         47.9962 
        1.03692         200.109         46.3367 
        1.05264          197.27         44.7636 
        1.06832         196.068         43.2664 
        1.08405           190.8          41.834 
        1.09979         189.832          40.466 
        1.11537         185.224         39.1729 
        1.13105          182.56         37.9289 
        1.14679         180.169         36.7343 
        1.16256         177.819         35.5891 
        1.17828         175.301         34.4967 
        1.19395         170.625          33.454 
         1.2097         170.051         32.4492 
        1.22537         168.334         31.4907 
          1.241         165.083          30.574 
        1.25666          161.67         29.6916 
        1.27241          158.17           28.84 
        1.28819          156.81         28.0205 
        1.30392         153.982         27.2354 
        1.31957         150.901         26.4839 
        1.33529         149.543         25.7581 
        1.35108         146.842         25.0567 
        1.36674         144.897         24.3865 
         1.3824         143.913         23.7416 
        1.39811         139.984         23.1179 
        1.41389          138.92         22.5143 
        1.42964         136.345         21.9333 
        1.44531         134.733         21.3757 
        1.46101         132.218         20.8364 
        1.47667         131.696         20.3174 
        1.49229         129.529         19.8174 
        1.50793         127.251         19.3338 
        1.52367         125.653         18.8633 
        1.53953         123.273         18.4053 
        1.55526         122.761         17.9662 
        1.57092         120.899         17.5433 
        1.58662         118.807          17.133 
        1.60235         116.861         16.7351 
        1.61809          115.72         16.3496 
        1.63369          114.18         15.9798 
        1.64941         113.521         15.6188 
        1.66519         111.119         15.2676 
        1.68085         109.651         14.9298 
        1.69652         108.325         14.6021 
        1.71228          107.35         14.2824 
        1.72806         105.425         13.9721 
        1.74368         103.871         13.6741 
        1.75933         102.874         13.3843 
        1.77505          101.19         13.1014 
        1.79081         100.102         12.8263 
         1.8065         98.3871         12.5603 
        1.82218         97.1511         12.3021 
        1.83797         96.7667         12.0494 
        1.85367         94.6766         11.8051 
        1.86928         94.2413         11.5692 
        1.88497         92.9252         11.3384 
        1.90073         91.8791         11.1131 
        1.91647         89.9683          10.894 
        1.93218         88.9967         10.6814 
        1.94787         88.1506         10.4748 
        1.96363         87.0212         10.2728 
        1.97935         86.0832         10.0766 
        1.99499         84.9889         9.88663 
        2.01064         83.5355         9.70128 
         2.0264         82.4265         9.51953 
        2.04216         81.4962         9.34253 
        2.05781         80.6249         9.17116 
        2.07353         79.6082         9.00348 
        2.08928         78.5477         8.83963 
        2.10499         77.3806          8.6803 
        2.12065         77.1368         8.52539 
        2.13633         76.0488         8.37412 
        2.15211         74.8841         8.22556 
        2.16785         73.6575         8.08102 
        2.18349         72.8398         7.94087 
        2.19916         72.1883         7.80374 
        2.21489         70.9479         7.66941 
        2.23063         70.2811         7.53815 
         2.2463         69.6308         7.41056 
        2.26194          68.742         7.28624 
        2.27765         67.8419         7.16414 
        2.29341         67.0734         7.04453 
        2.30914         66.1704         6.92789 
        2.32486         64.8728         6.81396 
        2.34061         64.6113         6.70241 
        2.35635         63.6548         6.59346 
        2.37203         62.8871         6.48731 
        2.38768         62.0985         6.38372 
        2.40339         61.2397         6.28202 
        2.41914         60.6614          6.1823 
        2.43483         60.0478          6.0851 
         2.4505         59.2097         5.99015 
        2.46622          58.768         5.89691 
        2.48195          57.915         5.80564 
        2.49759         57.2982          5.7168 
        2.51328         56.6273         5.62959 
        2.52906         55.9442         5.54364 
        2.54479         55.2234         5.45981 
        2.56049         54.5339         5.37788 
        2.57618         53.8825          5.2977 
        2.59189         53.5457         5.21904 
        2.60758         52.6631          5.1421 
        2.62325          52.249         5.06681 
        2.63898          51.472         4.99276 
        2.65468         51.1276         4.92035 
        2.67044         50.4885         4.84906 
        2.68618         50.0244         4.77936 
        2.70184         49.2127          4.7113 
        2.71755         48.7842          4.6444 
        2.73329         48.3106         4.57869 
        2.74897         47.8675         4.51448 
        2.76462         47.3196         4.45163 
        2.78034         46.6226         4.38973 
        2.79607         45.9186         4.32894 
        2.81179         45.6352         4.26936 
        2.82749         45.2017         4.21098 
        2.84321          44.748         4.15363 
        2.85893          44.193         4.09736 
        2.87462         43.5027         4.04223 
        2.89033         43.1703         3.98806 
        2.90605         42.5643         3.93484 
        2.92176         42.0993         3.88262 
        2.93747         41.6842         3.83137 
        2.95318         41.4463         3.78104 
        2.96891         40.8963         3.73159 
        2.98456         40.4851         3.68324 
        3.00023         40.0066         3.63568 
        3.01596         39.6779         3.58881 
        3.03164         39.0847          3.5429 
        3.04738         38.7003         3.49766 
         3.0631         38.4867         3.45323 
        3.07883         38.0122         3.40957 
        3.09456         37.5375         3.36667 
        3.11026         37.1071         3.32457 
        3.12596         36.6239          3.2832 
        3.14163         36.4092         3.24262 
        3.15734         36.1113         3.20264 
        3.17308         35.7433         3.16324 
        3.18879         35.2021         3.12461 
        3.20447         34.8541         3.08668 
         3.2202          34.528         3.04926 
         3.2359         34.1501         3.01252 
        3.25157         33.8962         2.97649 
        3.26729         33.5289         2.94093 
        3.28304         33.1358         2.90588 
        3.29877         32.7215         2.87145 
        3.31446         32.5347         2.83765 
        3.33014         32.0737         2.80443 
        3.34585          31.788         2.77169 
        3.36158         31.4199         2.73942 
        3.37727         31.1568         2.70776 
        3.39294         30.8795         2.67664 
        3.40867         30.6107         2.64589 
        3.42439         30.2993         2.61564 
        3.44008         29.9738         2.58593 
        3.45578         29.6795         2.55665 
        3.47153         29.4469         2.52776 
        3.48724         29.0713         2.49937 
        3.50292         28.8663         2.47149 
        3.51859         28.5556         2.44404 
        3.53431         28.1764         2.41692 
        3.55007         27.9417         2.39015 
        3.56577          27.656         2.36389 
        3.58146         27.4788         2.33803 
        3.59719         27.1654          2.3125 
        3.61292         26.9127         2.28736 
        3.62859         26.6395         2.26269 
        3.64429         26.3521         2.23834 
        3.66003         26.0852         2.21427 
        3.67578         25.9151         2.19056 
        3.69146         25.7419         2.16729 
        3.70712         25.3681          2.1444 
        3.72284          25.161         2.12176 
        3.73853         24.9734         2.09948 
        3.75422         24.6727         2.07751 
        3.76993         24.3941         2.05584 
        3.78564         24.2492         2.03449 
        3.80137         23.9846          2.0134 
        3.81707         23.8063         1.99266 
        3.83279         23.5029         1.97219 
        3.84853         23.3762         1.95198 
        3.86424          22.998         1.93209 
        3.87992         22.8613         1.91251 
        3.89561         22.6714          1.8932 
        3.91134         22.4051         1.87411 
        3.92704         22.1801         1.85531 
        3.94273         22.0654         1.83679 
        3.95845         21.8349         1.81848 
        3.97418         21.5989         1.80042 
        3.98988         21.4153         1.78263 
        4.00554         21.2165         1.76513 
        4.02125         21.0617         1.74782 
        4.03698         20.8383         1.73071 
        4.05268         20.6383         1.71386 
        4.06839         20.4769         1.69723 
         4.0841          20.322         1.68083 
        4.09983         20.0818         1.66462 
        4.11555         19.9303         1.64863 
        4.13124         19.7718         1.63289 
        4.14693         19.6257         1.61734 
        4.16266         19.4043         1.60196 
        4.17839         19.2817         1.58679 
        4.19408         19.0065         1.57186 
        4.20977         18.8857          1.5571 
        4.22551          18.731          1.5425 
        4.24123          18.553         1.52811 
        4.25691         18.4086         1.51393 
        4.27259         18.2012         1.49993 
        4.28831         18.0959         1.48608 
        4.30404         17.9002         1.47239 
        4.31974         17.7533         1.45891 
        4.33543         17.6418          1.4456 
        4.35116         17.4917         1.43242 
        4.36688         17.3512         1.41942 
        4.38255         17.1385         1.40662 
        4.39825         16.9989         1.39395 
        4.41398         16.8226         1.38142 
         4.4297         16.7314         1.36905 
        4.44541         16.5546         1.35683 
        4.46111         16.4127         1.34478 
        4.47683         16.2872         1.33286 
        4.49251         16.2175         1.32111 
        4.50819         16.0209          1.3095 
         4.5239         15.9131         1.29802 
        4.53962         15.8139         1.28666 
        4.55535         15.6533         1.27543 
        4.57106         15.4836         1.26435 
        4.58678          15.353          1.2534 
         4.6025          15.192         1.24258 
        4.61821         15.1625         1.23189 
        4.63391         14.9674         1.22133 
         4.6496         14.8418         1.21091 
        4.66532         14.7668         1.20059 
        4.68103         14.6291         1.19039 
        4.69673         14.5044         1.18032 
        4.71241         14.3869         1.17038 
        4.72811         14.2804         1.16054 
        4.74384         14.1491          1.1508 
        4.75955          14.053         1.14118 
        4.77525         13.9182         1.13168 
        4.79096         13.8143         1.12228 
        4.80669         13.7071         1.11298 
         4.8224         13.5867         1.10379 
        4.83809         13.4764         1.09472 
        4.85379         13.3765         1.08574 
         4.8695          13.243         1.07686 
        4.88521         13.1567         1.06808 
        4.90093          13.027          1.0594 
        4.91663         12.9462         1.05082 
        4.93234         12.8384         1.04232 
        4.94807         12.7545         1.03392 
        4.96377         12.6546         1.02562 
        4.97943         12.5737         1.01743 
        4.99514          12.464         1.00931 
        5.01086         12.3463         1.00128 
        5.02654         12.2495        0.993348 
        5.04227         12.1567        0.985481 
          5.058         12.0608        0.977696 
        5.07371         11.9766         0.97001 
        5.08942         11.8699        0.962406 
        5.10513          11.811        0.954882 
        5.12084         11.6885        0.947435 
        5.13656         11.6397        0.940069 
        5.15225         11.4931        0.932793 
        5.16796         11.4215        0.925583 
        5.18369         11.3429        0.918442 
         5.1994         11.2628         0.91139 
        5.21509         11.1466        0.904418 
        5.23079         11.0739        0.897511 
        5.24649         10.9968        0.890681 
        5.26217         10.9155        0.883927 
        5.27788         10.8415        0.877233 
        5.29359         10.7307        0.870608 
        5.30933         10.6699        0.864041 
        5.32504         10.6172        0.857553 
        5.34073         10.5105        0.851139 
        5.35646          10.438        0.844778 
        5.37218         10.3391         0.83848 
        5.38789         10.2587        0.832256 
        5.40357          10.209        0.826103 
        5.41929         10.1485        0.819999 
        5.43502         10.0798        0.813955 
         5.4507         9.96357        0.807987 
        5.46639         9.88268        0.802077 
        5.48212         9.82393        0.796213 
        5.49786         9.77817        0.790401 
        5.51353         9.70262        0.784675 
        5.52921         9.63077           0.779 
        5.54495         9.55073        0.773365 
        5.56066         9.48823        0.767792 
        5.57637         9.42057        0.762274 
        5.59207         9.35843        0.756815 
        5.60778         9.27378        0.751408 
        5.62346         9.19984        0.746061 
        5.63916         9.14814        0.740761 
        5.65487         9.06495        0.735509 
         5.6706         9.00819        0.730303 
        5.68633         8.93651        0.725145 
        5.70203         8.88816        0.720047 
        5.71773         8.83655        0.714999 
        5.73344         8.76737        0.709997 
        5.74916          8.7022        0.705038 
        5.76486         8.64791        0.700133 
        5.78054         8.58251        0.695282 
        5.79626         8.51239        0.690464 
          5.812         8.44935        0.685687 
         5.8277         8.38921        0.680968 
        5.84339         8.31905        0.676294 
        5.85911         8.28955        0.671655 
        5.87484         8.23323         0.66706 
        5.89053         8.16462        0.662518 
        5.90623         8.11325        0.658015 
        5.92195          8.0579        0.653546 
        5.93767         7.98047        0.649122 
        5.95336          7.9493        0.644746 
        5.96905         7.89152        0.640411 
        5.98476          7.8403        0.636111 
        6.00048         7.76168        0.631848 
        6.01617         7.72748         0.62763 
        6.03185         7.68382        0.623456 
        6.04756         7.61509         0.61931 
        6.06331         7.57981        0.615192 
        6.07903         7.52266        0.611121 
        6.09473         7.45586         0.60709 
        6.11044         7.40911        0.603092 
        6.12616         7.38479        0.599131 
        6.14186         7.32773        0.595209 
        6.15755         7.26182        0.591322 
        6.17326         7.22564        0.587467 
        6.18898         7.17886        0.583645 
        6.20467         7.12389        0.579863 
        6.22036         7.07621        0.576115 
         6.2361         7.02896         0.57239 
         6.2518         6.98972        0.568705 
        6.26748         6.94088        0.565059 
        6.28319          6.8965        0.561436 
        6.29893         6.85656        0.557841 
        6.31463         6.81145        0.554284 
        6.33033         6.75837        0.550759 
        6.34604         6.70608        0.547262 
        6.36177         6.68607        0.543792 
        6.37747         6.62255        0.540359 
