# k  (h/Mpc)    Pcb(k)  (Mpc/h)^3    Pcb_linear(k) (Mpc/h)^3   ShotnoiseSubtracted = true
      0.0200456         16559.1         16797.9 
      0.0350414         13503.3         13171.2 
      0.0492313         10188.9         10435.7 
      0.0637834         8058.42         8485.86 
      0.0800726         6092.02         6410.25 
       0.096163          5144.9         5042.07 
       0.111083         4393.95         4268.11 
       0.126058         3493.63         3548.01 
       0.142273         2976.36         2887.15 
       0.158546         2546.07         2459.51 
        0.17375         2292.95         2139.86 
       0.188953         2114.29         1839.63 
       0.204907         1810.41         1592.46 
       0.220756         1645.19         1407.48 
        0.23588         1478.85         1250.15 
         0.2514         1331.16         1107.73 
       0.267535         1284.77         987.909 
       0.283568         1140.66         887.722 
       0.299022         1092.33         801.638 
       0.314451         1127.07         726.812 
       0.330372         984.714         660.849 
       0.346141           908.2         603.278 
       0.361624         871.841         552.916 
       0.377134         830.222         508.376 
       0.392932         799.495         468.241 
       0.408854         761.129         432.052 
       0.424564         743.269         399.998 
       0.440253         684.429         371.308 
       0.455999         655.332         345.366 
       0.471626         665.405         322.035 
        0.48727         629.154         300.831 
       0.502856         592.126         281.617 
       0.518488         584.458         264.031 
       0.534347         551.411         247.718 
       0.550082         529.194         232.897 
       0.565732           523.8         219.362 
       0.581496         510.849         206.818 
       0.597222         496.907         195.282 
       0.612804         487.182         184.722 
       0.628434         465.928         174.918 
       0.644267         449.994         165.715 
       0.660051         443.547         157.201 
       0.675724          435.78         149.341 
       0.691403         424.416         142.017 
       0.707174         408.959         135.148 
       0.722871         401.026         128.764 
        0.73838         397.275         122.863 
       0.754018         382.949         117.288 
       0.769845         379.214             112 
        0.78569         371.153         107.034 
       0.801365         360.155         102.419 
       0.817031         355.195         98.0789 
       0.832809         350.621         93.9636 
       0.848511          341.66         90.1035 
       0.864097         333.815         86.4874 
       0.879701         330.509         83.0669 
       0.895507         319.728         79.7916 
       0.911279         313.396         76.7004 
        0.92691         310.324         73.7992 
       0.942635         308.177         71.0326 
       0.958396         297.892         68.4026 
       0.974128         293.958         65.9111 
       0.989692         282.918         63.5689 
        1.00528         282.673         61.3377 
        1.02113         277.588         59.1791 
        1.03692           271.6         57.1329 
        1.05264         266.879         55.1933 
        1.06832         265.424         53.3473 
        1.08405         259.149         51.5812 
        1.09979         256.247         49.8944 
        1.11537         249.421            48.3 
        1.13105         246.173         46.7661 
        1.14679         242.877         45.2933 
        1.16256         240.291         43.8812 
        1.17828         236.434         42.5342 
        1.19395         230.138         41.2486 
         1.2097         229.911         40.0097 
        1.22537         226.359         38.8279 
          1.241         221.585         37.6976 
        1.25666         218.841         36.6096 
        1.27241         214.744         35.5596 
        1.28819         212.023         34.5492 
        1.30392         208.871         33.5811 
        1.31957         203.856         32.6545 
        1.33529         201.397         31.7596 
        1.35108         199.149         30.8948 
        1.36674         195.478         30.0685 
         1.3824         193.341         29.2733 
        1.39811          190.61         28.5042 
        1.41389         186.236           27.76 
        1.42964          184.12         27.0437 
        1.44531         181.703         26.3562 
        1.46101         178.639         25.6912 
        1.47667         176.312         25.0512 
        1.49229         173.839         24.4348 
        1.50793         171.177         23.8385 
        1.52367         169.214         23.2583 
        1.53953         165.156         22.6936 
        1.55526         164.868         22.1522 
        1.57092         162.823         21.6308 
        1.58662         158.527         21.1249 
        1.60235         157.166         20.6343 
        1.61809          154.18          20.159 
        1.63369         152.175          19.703 
        1.64941         150.881         19.2579 
        1.66519         148.368         18.8249 
        1.68085         145.884         18.4084 
        1.69652         144.125         18.0044 
        1.71228         142.426         17.6102 
        1.72806         140.255         17.2275 
        1.74368         138.774         16.8601 
        1.75933         137.309         16.5027 
        1.77505         134.717          16.154 
        1.79081         132.468         15.8148 
         1.8065         130.648         15.4868 
        1.82218         128.484         15.1684 
        1.83797         128.105         14.8568 
        1.85367         126.002         14.5557 
        1.86928         124.207         14.2647 
        1.88497         122.741         13.9802 
        1.90073         121.575         13.7023 
        1.91647         119.326         13.4323 
        1.93218             118         13.1701 
        1.94787         116.099         12.9154 
        1.96363         115.398         12.6664 
        1.97935         113.585         12.4244 
        1.99499         112.698         12.1902 
        2.01064         110.125         11.9616 
         2.0264         109.065         11.7375 
        2.04216         107.477         11.5193 
        2.05781         106.299          11.308 
        2.07353         104.713         11.1012 
        2.08928         103.445         10.8992 
        2.10499         102.148         10.7028 
        2.12065         101.379         10.5118 
        2.13633         100.207         10.3253 
        2.15211          98.598         10.1421 
        2.16785         97.0565         9.96386 
        2.18349         95.8202         9.79105 
        2.19916         94.9534         9.62198 
        2.21489         93.7059         9.45635 
        2.23063         92.2229         9.29451 
         2.2463         91.6783         9.13719 
        2.26194         90.2327          8.9839 
        2.27765         89.1342         8.83335 
        2.29341         88.2361         8.68587 
        2.30914          87.128         8.54206 
        2.32486         85.6461         8.40159 
        2.34061         85.0978         8.26404 
        2.35635         83.7125         8.12971 
        2.37203         82.4924         7.99883 
        2.38768         81.6205          7.8711 
        2.40339         81.0954          7.7457 
        2.41914          79.603         7.62275 
        2.43483         78.7459          7.5029 
         2.4505         77.9025         7.38583 
        2.46622         77.0011         7.27086 
        2.48195         76.0894         7.15833 
        2.49759         75.0533         7.04879 
        2.51328         74.3844         6.94125 
        2.52906         72.8711         6.83528 
        2.54479         72.2526         6.73192 
        2.56049         71.3553          6.6309 
        2.57618         70.3802         6.53204 
        2.59189         69.8616         6.43505 
        2.60758         68.8149         6.34019 
        2.62325          68.076         6.24735 
        2.63898         67.2741         6.15605 
        2.65468         66.5517         6.06677 
        2.67044         65.7725         5.97887 
        2.68618          65.048         5.89292 
        2.70184         64.0194         5.80901 
        2.71755         63.3579         5.72652 
        2.73329         62.6415         5.64551 
        2.74897         62.1233         5.56633 
        2.76462         61.4872         5.48884 
        2.78034         60.7607         5.41251 
        2.79607         59.9355         5.33756 
        2.81179         59.1853         5.26411 
        2.82749         58.8806         5.19212 
        2.84321         58.2181          5.1214 
        2.85893         57.5468         5.05202 
        2.87462         56.7805         4.98404 
        2.89033         56.0922         4.91726 
        2.90605         55.6292         4.85164 
        2.92176         54.8618         4.78725 
        2.93747         54.1771         4.72406 
        2.95318         53.7797           4.662 
        2.96891         53.0341         4.60103 
        2.98456         52.5033         4.54142 
        3.00023         51.8368         4.48278 
        3.01596         51.4845         4.42499 
        3.03164         50.8948         4.36838 
        3.04738         50.2933          4.3126 
         3.0631         49.4949         4.25782 
        3.07883         49.1981         4.20398 
        3.09456         48.5559         4.15108 
        3.11026         48.0241         4.09918 
        3.12596         47.6741         4.04817 
        3.14163         46.9175         3.99814 
        3.15734         46.4784         3.94884 
        3.17308         46.0592         3.90026 
        3.18879          45.533         3.85263 
        3.20447         45.0707         3.80586 
         3.2202          44.495         3.75972 
         3.2359          44.213         3.71443 
        3.25157         43.6225         3.66999 
        3.26729         43.1918         3.62615 
        3.28304           42.83         3.58294 
        3.29877         42.2157         3.54048 
        3.31446          41.979         3.49881 
        3.33014         41.5503         3.45785 
        3.34585         41.0556         3.41748 
        3.36158         40.6023         3.37769 
        3.37727           40.24         3.33866 
        3.39294         39.8501         3.30028 
        3.40867         39.4504         3.26237 
        3.42439         38.9192         3.22508 
        3.44008         38.6164         3.18844 
        3.45578         38.1608         3.15234 
        3.47153         37.8664         3.11672 
        3.48724         37.2767         3.08172 
        3.50292          36.919         3.04733 
        3.51859         36.7623         3.01349 
        3.53431         36.1807         2.98005 
        3.55007         35.8932         2.94704 
        3.56577         35.5731         2.91466 
        3.58146         35.2168         2.88278 
        3.59719         34.8636          2.8513 
        3.61292         34.5331         2.82031 
        3.62859         34.2281         2.78989 
        3.64429         34.0156         2.75986 
        3.66003         33.5841         2.73018 
        3.67578         33.3354         2.70095 
        3.69146         33.0207         2.67226 
        3.70712          32.644         2.64404 
        3.72284         32.4039         2.61612 
        3.73853         32.0335         2.58865 
        3.75422         31.7407         2.56156 
        3.76993         31.4971         2.53484 
        3.78564         31.1671         2.50851 
        3.80137         30.8508         2.48252 
        3.81707         30.5739         2.45694 
        3.83279         30.2604         2.43171 
        3.84853         29.9269         2.40678 
        3.86424         29.7473         2.38226 
        3.87992         29.4015         2.35812 
        3.89561         29.2506          2.3343 
        3.91134         28.9065         2.31077 
        3.92704         28.6252         2.28759 
        3.94273         28.4128         2.26475 
        3.95845         28.0891         2.24218 
        3.97418         27.8229         2.21991 
        3.98988         27.4809         2.19798 
        4.00554         27.2399          2.1764 
        4.02125         27.0506         2.15505 
        4.03698          26.845         2.13395 
        4.05268         26.5903         2.11319 
        4.06839         26.2969         2.09268 
         4.0841         26.1246         2.07245 
        4.09983         25.7892         2.05246 
        4.11555         25.5766         2.03275 
        4.13124         25.4556         2.01334 
        4.14693         25.1878         1.99418 
        4.16266         24.8993         1.97521 
        4.17839          24.737         1.95651 
        4.19408         24.4254         1.93809 
        4.20977         24.2714          1.9199 
        4.22551         24.1066          1.9019 
        4.24123          23.865         1.88415 
        4.25691         23.6381         1.86667 
        4.27259         23.4249         1.84941 
        4.28831         23.2246         1.83233 
        4.30404         23.0103         1.81545 
        4.31974         22.7948         1.79883 
        4.33543         22.6135         1.78242 
        4.35116         22.4515         1.76617 
        4.36688         22.2798         1.75013 
        4.38255         22.0475         1.73435 
        4.39825         21.8845         1.71874 
        4.41398         21.7117         1.70328 
         4.4297         21.5177         1.68803 
        4.44541         21.2563         1.67297 
        4.46111         21.1144          1.6581 
        4.47683         20.9191         1.64341 
        4.49251         20.7796         1.62892 
        4.50819         20.6059         1.61461 
         4.5239         20.3719         1.60045 
        4.53962         20.2388         1.58644 
        4.55535         20.0313          1.5726 
        4.57106          19.898         1.55894 
        4.58678         19.7059         1.54544 
         4.6025         19.6101         1.53209 
        4.61821         19.3331         1.51891 
        4.63391         19.2175          1.5059 
         4.6496         19.0917         1.49304 
        4.66532         18.9048         1.48032 
        4.68103         18.7686         1.46775 
        4.69673          18.641         1.45533 
        4.71241         18.4923         1.44308 
        4.72811         18.3076         1.43094 
        4.74384         18.1714         1.41893 
        4.75955         18.0077         1.40707 
        4.77525          17.875         1.39536 
        4.79096         17.7041         1.38376 
        4.80669         17.5825         1.37229 
         4.8224         17.4235         1.36097 
        4.83809         17.3484         1.34978 
        4.85379         17.1617         1.33871 
         4.8695         16.9685         1.32776 
        4.88521         16.8839         1.31694 
        4.90093         16.7738         1.30623 
        4.91663         16.6032         1.29565 
        4.93234         16.4562         1.28518 
        4.94807         16.3474         1.27482 
        4.96377         16.1984         1.26459 
        4.97943         16.0652         1.25449 
        4.99514         15.9572         1.24448 
        5.01086         15.8082         1.23457 
        5.02654         15.7547         1.22479 
        5.04227         15.5531         1.21509 
          5.058         15.4766         1.20549 
        5.07371         15.3514         1.19602 
        5.08942         15.1835         1.18664 
        5.10513         15.1059         1.17736 
        5.12084          14.977         1.16818 
        5.13656          14.871          1.1591 
        5.15225         14.7378         1.15013 
        5.16796         14.6262         1.14124 
        5.18369         14.5426         1.13243 
         5.1994         14.4157         1.12374 
        5.21509         14.3307         1.11514 
        5.23079         14.2001         1.10663 
        5.24649         14.0965         1.09821 
        5.26217         13.9906         1.08988 
        5.27788         13.8933         1.08162 
        5.29359         13.7737         1.07346 
        5.30933         13.6773         1.06536 
        5.32504         13.5663         1.05736 
        5.34073         13.4512         1.04945 
        5.35646         13.3896         1.04161 
        5.37218         13.2644         1.03384 
        5.38789         13.1572         1.02617 
        5.40357         13.0785         1.01858 
        5.41929         13.0073         1.01105 
        5.43502         12.8668          1.0036 
         5.4507         12.7747        0.996244 
        5.46639          12.679        0.988958 
        5.48212         12.5651        0.981727 
        5.49786         12.4949         0.97456 
        5.51353         12.3994        0.967501 
        5.52921         12.3139        0.960504 
        5.54495         12.2491        0.953555 
        5.56066         12.1391        0.946683 
        5.57637         12.0439         0.93988 
        5.59207         11.9604         0.93315 
        5.60778          11.865        0.926482 
        5.62346         11.7841        0.919889 
        5.63916         11.7128        0.913354 
        5.65487         11.6306         0.90688 
         5.6706         11.5294         0.90046 
        5.68633         11.4502          0.8941 
        5.70203         11.3627        0.887814 
        5.71773         11.2832         0.88159 
        5.73344         11.2018        0.875423 
        5.74916         11.1477        0.869308 
        5.76486         11.0475        0.863261 
        5.78054         10.9651         0.85728 
        5.79626         10.8968        0.851339 
          5.812         10.8132        0.845448 
         5.8277         10.7273        0.839631 
        5.84339         10.6572        0.833868 
        5.85911         10.5778        0.828148 
        5.87484         10.5227        0.822482 
        5.89053         10.4257        0.816881 
        5.90623         10.3691        0.811329 
        5.92195         10.2703         0.80582 
        5.93767         10.2307        0.800364 
        5.95336         10.1425        0.794968 
        5.96905          10.051        0.789624 
        5.98476         9.99614        0.784321 
        6.00048         9.92652        0.779066 
        6.01617         9.86358        0.773865 
        6.03185         9.78775        0.768718 
        6.04756         9.71937        0.763606 
        6.06331         9.66368        0.758529 
        6.07903         9.60378        0.753509 
        6.09473         9.52764        0.748539 
        6.11044         9.46618         0.74361 
        6.12616         9.41413        0.738725 
        6.14186         9.32925        0.733889 
        6.15755         9.27414        0.729097 
        6.17326         9.20958        0.724344 
        6.18898         9.14493        0.719631 
        6.20467         9.08162        0.714969 
        6.22036         9.03989        0.710347 
         6.2361         8.97175        0.705755 
         6.2518         8.90586         0.70121 
        6.26748         8.86522        0.696716 
        6.28319           8.794        0.692248 
        6.29893         8.72075        0.687816 
        6.31463         8.67409         0.68343 
        6.33033         8.60264        0.679083 
        6.34604          8.5528        0.674771 
        6.36177         8.50045        0.670493 
        6.37747         8.44659         0.66626 
