# k  (h/Mpc)    Pcb(k)  (Mpc/h)^3    Pcb_linear(k) (Mpc/h)^3   ShotnoiseSubtracted = true
      0.0200456         14216.1         14411.7 
      0.0350414         11574.8         11300.3 
      0.0492313         8772.66          8953.3 
      0.0637834         6945.24         7280.46 
      0.0800726         5252.78         5499.68 
       0.096163         4416.02         4325.85 
       0.111083         3773.64         3661.83 
       0.126058          3001.5         3044.02 
       0.142273         2542.95         2477.03 
       0.158546         2181.35         2110.14 
        0.17375         1957.22          1835.9 
       0.188953         1790.29         1578.31 
       0.204907          1527.7         1366.25 
       0.220756         1388.74         1207.55 
        0.23588         1247.52         1072.57 
         0.2514         1118.43          950.38 
       0.267535          1080.7         847.578 
       0.283568         955.191         761.622 
       0.299022         914.822         687.766 
       0.314451         937.362         623.569 
       0.330372          812.14         566.976 
       0.346141         751.332         517.583 
       0.361624         720.536         474.375 
       0.377134         682.623         436.162 
       0.392932         659.553         401.728 
       0.408854         627.206          370.68 
       0.424564         610.111         343.179 
       0.440253         558.056         318.564 
       0.455999         534.792         296.307 
       0.471626         541.667          276.29 
        0.48727         512.616         258.099 
       0.502856         477.211         241.613 
       0.518488          475.02         226.526 
       0.534347         444.405          212.53 
       0.550082         428.686         199.814 
       0.565732         425.322         188.202 
       0.581496         411.955          177.44 
       0.597222         400.268         167.542 
       0.612804          391.83         158.483 
       0.628434         374.907         150.071 
       0.644267         360.468         142.175 
       0.660051         354.874         134.871 
       0.675724         350.248         128.127 
       0.691403         340.396         121.844 
       0.707174          327.88         115.951 
       0.722871         322.164         110.473 
        0.73838         319.474          105.41 
       0.754018         305.945         100.628 
       0.769845         303.835         96.0908 
        0.78569         297.258         91.8301 
       0.801365         289.891         87.8701 
       0.817031         283.744         84.1469 
       0.832809         280.002         80.6162 
       0.848511         272.274         77.3044 
       0.864097         265.897          74.202 
       0.879701         264.189         71.2674 
       0.895507         256.706         68.4573 
       0.911279         249.736         65.8052 
        0.92691         247.604         63.3161 
       0.942635         245.933         60.9425 
       0.958396         239.146         58.6861 
       0.974128         234.643         56.5485 
       0.989692         226.804          54.539 
        1.00528         226.019         52.6247 
        1.02113         222.338         50.7728 
        1.03692         217.105         49.0172 
        1.05264         213.862         47.3532 
        1.06832         212.995         45.7694 
        1.08405         207.076         44.2541 
        1.09979         205.942         42.8069 
        1.11537         200.831         41.4391 
        1.13105         197.823         40.1231 
        1.14679         195.424         38.8594 
        1.16256         192.981         37.6479 
        1.17828         190.233         36.4923 
        1.19395         185.103         35.3893 
         1.2097          184.53         34.3264 
        1.22537         182.876         33.3125 
          1.241         178.959         32.3427 
        1.25666         175.722         31.4093 
        1.27241         172.025         30.5084 
        1.28819         170.431         29.6415 
        1.30392         167.421         28.8109 
        1.31957         163.795          28.016 
        1.33529         162.263         27.2482 
        1.35108         159.522         26.5062 
        1.36674         157.458         25.7973 
         1.3824         156.006          25.115 
        1.39811         152.244         24.4553 
        1.41389          150.67         23.8167 
        1.42964         148.109         23.2021 
        1.44531           146.3         22.6123 
        1.46101         143.472         22.0418 
        1.47667         142.769         21.4927 
        1.49229         140.373         20.9639 
        1.50793         138.029         20.4523 
        1.52367         136.385         19.9545 
        1.53953         133.589           19.47 
        1.55526          133.24         19.0055 
        1.57092         131.077         18.5581 
        1.58662         128.451         18.1241 
        1.60235         126.712         17.7032 
        1.61809          125.05         17.2955 
        1.63369         123.616         16.9042 
        1.64941          122.73         16.5223 
        1.66519         120.252         16.1509 
        1.68085         118.483         15.7935 
        1.69652         117.349         15.4469 
        1.71228         116.213         15.1087 
        1.72806         114.188         14.7804 
        1.74368         112.548         14.4652 
        1.75933         111.455         14.1585 
        1.77505         109.351         13.8594 
        1.79081         108.335         13.5683 
         1.8065         106.227         13.2869 
        1.82218         104.998         13.0138 
        1.83797         104.636         12.7464 
        1.85367          102.44         12.4881 
        1.86928         101.954         12.2385 
        1.88497         100.339         11.9943 
        1.90073         99.3292         11.7559 
        1.91647           97.38         11.5243 
        1.93218         96.2651         11.2993 
        1.94787         95.1888         11.0808 
        1.96363         94.1562         10.8671 
        1.97935         92.9652         10.6595 
        1.99499         91.9214         10.4586 
        2.01064          90.172         10.2625 
         2.0264         89.1912         10.0702 
        2.04216         87.8143           9.883 
        2.05781         87.0421         9.70171 
        2.07353         85.8814         9.52433 
        2.08928         84.6783           9.351 
        2.10499         83.4834         9.18246 
        2.12065         83.2349         9.01858 
        2.13633          82.014         8.85857 
        2.15211         80.8104         8.70141 
        2.16785          79.511         8.54851 
        2.18349         78.4676         8.40024 
        2.19916         77.8865         8.25519 
        2.21489         76.5086         8.11308 
        2.23063         75.7716         7.97423 
         2.2463         75.1859         7.83926 
        2.26194         74.1084         7.70775 
        2.27765         73.2367         7.57859 
        2.29341         72.4472         7.45205 
        2.30914         71.4719         7.32867 
        2.32486         69.9851         7.20815 
        2.34061         69.6108         7.09015 
        2.35635         68.6813         6.97489 
        2.37203          67.766          6.8626 
        2.38768         66.9442         6.75302 
        2.40339         66.0663         6.64543 
        2.41914           65.35         6.53994 
        2.43483         64.6596         6.43712 
         2.4505         63.6684         6.33668 
        2.46622         63.2659         6.23804 
        2.48195         62.4004          6.1415 
        2.49759         61.6246         6.04752 
        2.51328         60.8873         5.95526 
        2.52906         60.1316         5.86434 
        2.54479         59.3763         5.77566 
        2.56049         58.7035         5.68899 
        2.57618         57.8996         5.60418 
        2.59189         57.5593         5.52096 
        2.60758         56.6506         5.43957 
        2.62325          56.126         5.35992 
        2.63898         55.3813         5.28159 
        2.65468         54.8864         5.20499 
        2.67044         54.3472         5.12958 
        2.68618         53.6956         5.05584 
        2.70184         52.9027         4.98385 
        2.71755         52.3789         4.91308 
        2.73329         51.9079         4.84357 
        2.74897         51.5288         4.77564 
        2.76462          50.891         4.70916 
        2.78034         50.1921         4.64367 
        2.79607         49.3427         4.57936 
        2.81179         48.9498         4.51635 
        2.82749         48.5395         4.45459 
        2.84321         48.0859         4.39391 
        2.85893         47.5099         4.33439 
        2.87462          46.824         4.27607 
        2.89033         46.3333         4.21877 
        2.90605         45.7451         4.16247 
        2.92176         45.2559         4.10723 
        2.93747         44.6945         4.05301 
        2.95318          44.454         3.99977 
        2.96891         43.8637         3.94746 
        2.98456         43.4328         3.89632 
        3.00023         42.8378           3.846 
        3.01596          42.526         3.79642 
        3.03164         41.9639         3.74786 
        3.04738         41.5201             3.7 
         3.0631         41.1591           3.653 
        3.07883         40.6847         3.60681 
        3.09456         40.1975         3.56143 
        3.11026         39.7346          3.5169 
        3.12596         39.2733         3.47313 
        3.14163         39.0058         3.43021 
        3.15734         38.6216         3.38792 
        3.17308         38.2707         3.34623 
        3.18879         37.7545         3.30536 
        3.20447         37.3306         3.26524 
         3.2202         36.9765         3.22566 
         3.2359          36.622          3.1868 
        3.25157         36.2034         3.14867 
        3.26729         35.8736         3.11106 
        3.28304         35.4974         3.07398 
        3.29877         35.0243         3.03756 
        3.31446         34.8046         3.00181 
        3.33014         34.4256         2.96666 
        3.34585          33.987         2.93203 
        3.36158         33.6853         2.89789 
        3.37727          33.294         2.86441 
        3.39294         32.9608         2.83148 
        3.40867           32.75         2.79896 
        3.42439          32.345         2.76696 
        3.44008         32.0809         2.73552 
        3.45578         31.7176         2.70455 
        3.47153         31.4799           2.674 
        3.48724         31.0301         2.64396 
        3.50292         30.8573         2.61446 
        3.51859         30.5702         2.58542 
        3.53431          30.185         2.55674 
        3.55007         29.8374         2.52842 
        3.56577         29.5739         2.50064 
        3.58146         29.4137         2.47328 
        3.59719         28.9829         2.44628 
        3.61292         28.8113         2.41969 
        3.62859         28.4354         2.39359 
        3.64429         28.2199         2.36783 
        3.66003         27.9173         2.34236 
        3.67578         27.7033         2.31729 
        3.69146           27.51         2.29267 
        3.70712         27.1068         2.26846 
        3.72284         26.9212          2.2445 
        3.73853          26.712         2.22093 
        3.75422          26.412          2.1977 
        3.76993          26.096         2.17477 
        3.78564         25.9509         2.15218 
        3.80137         25.6928         2.12988 
        3.81707          25.449         2.10794 
        3.83279         25.1453         2.08629 
        3.84853         25.0184          2.0649 
        3.86424         24.5814         2.04386 
        3.87992         24.4546         2.02315 
        3.89561         24.2451         2.00272 
        3.91134          24.001         1.98253 
        3.92704         23.7363         1.96264 
        3.94273         23.5578         1.94305 
        3.95845         23.3613         1.92368 
        3.97418         23.0834         1.90458 
        3.98988         22.8942         1.88576 
        4.00554         22.6607         1.86725 
        4.02125          22.514         1.84893 
        4.03698         22.3074         1.83083 
        4.05268         22.0455         1.81301 
        4.06839         21.8665         1.79542 
         4.0841          21.733         1.77806 
        4.09983          21.445         1.76091 
        4.11555         21.2937           1.744 
        4.13124         21.1512         1.72735 
        4.14693         20.9409         1.71091 
        4.16266         20.6987         1.69464 
        4.17839         20.6194         1.67859 
        4.19408         20.3054         1.66279 
        4.20977         20.1836         1.64718 
        4.22551          20.028         1.63174 
        4.24123         19.8478         1.61651 
        4.25691         19.6703         1.60151 
        4.27259         19.4598          1.5867 
        4.28831         19.3428         1.57205 
        4.30404         19.1182         1.55757 
        4.31974         18.9312         1.54331 
        4.33543         18.8444         1.52923 
        4.35116         18.6912         1.51529 
        4.36688         18.5394         1.50153 
        4.38255         18.3307         1.48799 
        4.39825         18.1808         1.47459 
        4.41398         17.9945         1.46133 
         4.4297         17.8747         1.44825 
        4.44541         17.6894         1.43533 
        4.46111         17.5206         1.42257 
        4.47683         17.3782         1.40996 
        4.49251         17.2876         1.39753 
        4.50819         17.1108         1.38526 
         4.5239         16.9937         1.37311 
        4.53962         16.8546         1.36109 
        4.55535         16.7213         1.34921 
        4.57106         16.5702         1.33749 
        4.58678         16.3944         1.32591 
         4.6025          16.242         1.31446 
        4.61821         16.1835         1.30315 
        4.63391         15.9819         1.29199 
         4.6496         15.8526         1.28096 
        4.66532         15.7785         1.27004 
        4.68103         15.6175         1.25925 
        4.69673          15.481          1.2486 
        4.71241         15.3779         1.23809 
        4.72811         15.2552         1.22768 
        4.74384           15.11         1.21737 
        4.75955         15.0188          1.2072 
        4.77525           14.87         1.19715 
        4.79096         14.7361          1.1872 
        4.80669         14.6257         1.17736 
         4.8224         14.5004         1.16764 
        4.83809         14.3595         1.15805 
        4.85379         14.2834         1.14855 
         4.8695         14.1529         1.13915 
        4.88521         14.0369         1.12987 
        4.90093         13.9194         1.12068 
        4.91663         13.8015         1.11161 
        4.93234         13.6751         1.10262 
        4.94807         13.5998         1.09373 
        4.96377         13.5077         1.08495 
        4.97943         13.3794         1.07629 
        4.99514         13.2887          1.0677 
        5.01086         13.1954          1.0592 
        5.02654         13.0736         1.05081 
        5.04227         12.9717         1.04249 
          5.058          12.869         1.03426 
        5.07371          12.766         1.02613 
        5.08942         12.6758         1.01808 
        5.10513         12.5821         1.01012 
        5.12084           12.48         1.00224 
        5.13656         12.3963        0.994451 
        5.15225         12.2828        0.986755 
        5.16796           12.18        0.979128 
        5.18369          12.102        0.971574 
         5.1994         11.9996        0.964114 
        5.21509         11.8987        0.956738 
        5.23079         11.8118        0.949431 
        5.24649         11.7435        0.942207 
        5.26217         11.6189        0.935062 
        5.27788         11.5588        0.927981 
        5.29359         11.4526        0.920972 
        5.30933         11.3858        0.914026 
        5.32504         11.3055        0.907163 
        5.34073         11.2191        0.900377 
        5.35646         11.1377        0.893648 
        5.37218         11.0288        0.886986 
        5.38789          10.935        0.880402 
        5.40357          10.875        0.873893 
        5.41929         10.8137        0.867435 
        5.43502         10.7205        0.861042 
         5.4507         10.6238        0.854729 
        5.46639         10.5359        0.848477 
        5.48212         10.4595        0.842274 
        5.49786         10.4052        0.836125 
        5.51353         10.3439        0.830068 
        5.52921          10.266        0.824065 
        5.54495         10.1733        0.818104 
        5.56066         10.1214        0.812208 
        5.57637         10.0527        0.806371 
        5.59207          9.9437        0.800597 
        5.60778         9.87133        0.794877 
        5.62346         9.80444         0.78922 
        5.63916         9.73571        0.783614 
        5.65487          9.6706        0.778058 
         5.6706         9.60089        0.772551 
        5.68633         9.51718        0.767094 
        5.70203         9.46574        0.761701 
        5.71773         9.40076        0.756362 
        5.73344         9.34841         0.75107 
        5.74916         9.26345        0.745824 
        5.76486         9.21368        0.740636 
        5.78054         9.14589        0.735504 
        5.79626           9.071        0.730407 
          5.812         9.01061        0.725353 
         5.8277         8.93864        0.720362 
        5.84339         8.86095        0.715418 
        5.85911         8.81466         0.71051 
        5.87484         8.75988         0.70565 
        5.89053         8.69229        0.700844 
        5.90623         8.64792        0.696081 
        5.92195           8.585        0.691354 
        5.93767         8.50785        0.686674 
        5.95336         8.45509        0.682044 
        5.96905         8.40678        0.677459 
        5.98476         8.34308        0.672909 
        6.00048         8.27079          0.6684 
        6.01617         8.22133        0.663938 
        6.03185         8.17701        0.659523 
        6.04756         8.11037        0.655137 
        6.06331         8.07466        0.650781 
        6.07903         8.00808        0.646474 
        6.09473         7.94142         0.64221 
        6.11044         7.89782        0.637981 
        6.12616         7.85889         0.63379 
        6.14186         7.79261        0.629641 
        6.15755         7.74091         0.62553 
        6.17326         7.68595        0.621452 
        6.18898         7.64077        0.617408 
        6.20467         7.58089        0.613408 
        6.22036         7.53101        0.609443 
         6.2361         7.48276        0.605503 
         6.2518         7.43577        0.601604 
        6.26748         7.39261        0.597748 
        6.28319         7.33701        0.593915 
        6.29893         7.28684        0.590112 
        6.31463         7.24936        0.586349 
        6.33033          7.1861         0.58262 
        6.34604         7.14708        0.578921 
        6.36177         7.11228         0.57525 
        6.37747         7.06381        0.571618 
