# k  (h/Mpc)    Pcb(k)  (Mpc/h)^3    Pcb_linear(k) (Mpc/h)^3   ShotnoiseSubtracted = true
      0.0200456         17221.7         17595.5 
      0.0350414         13202.8         13796.7 
      0.0492313         10660.4         10931.2 
      0.0637834          9013.8         8888.82 
      0.0800726         6847.67         6714.65 
       0.096163         5057.83          5281.5 
       0.111083         4227.38         4470.78 
       0.126058         3746.14         3716.49 
       0.142273         3159.21         3024.25 
       0.158546         2855.79         2576.31 
        0.17375         2320.73         2241.47 
       0.188953         2220.94         1926.98 
       0.204907         2078.04         1668.08 
       0.220756         1819.62         1474.32 
        0.23588         1622.21         1309.51 
         0.2514         1410.51         1160.33 
       0.267535         1403.82         1034.82 
       0.283568         1275.85         929.876 
       0.299022         1204.23         839.704 
       0.314451         1147.17         761.325 
       0.330372         1055.98          692.23 
       0.346141         1001.17         631.925 
       0.361624         958.658         579.172 
       0.377134         891.574         532.517 
       0.392932         860.655         490.475 
       0.408854          836.44         452.568 
       0.424564         780.617         418.993 
       0.440253         765.743          388.94 
       0.455999         733.538         361.766 
       0.471626         699.619         337.327 
        0.48727         674.509         315.116 
       0.502856          656.13         294.989 
       0.518488         647.138         276.569 
       0.534347         605.947         259.481 
       0.550082         587.241         243.956 
       0.565732         586.709         229.779 
       0.581496         551.741         216.639 
       0.597222         543.781         204.555 
       0.612804         530.325         193.494 
       0.628434         513.285         183.225 
       0.644267         499.223         173.584 
       0.660051         482.494         164.666 
       0.675724         479.649         156.433 
       0.691403         463.103         148.761 
       0.707174         447.477         141.566 
       0.722871         443.083         134.878 
        0.73838         435.207         128.697 
       0.754018         423.001         122.858 
       0.769845         413.149         117.319 
        0.78569         408.001         112.117 
       0.801365         396.099         107.282 
       0.817031         384.957         102.736 
       0.832809          381.43         98.4256 
       0.848511          371.89         94.3822 
       0.864097         362.464         90.5944 
       0.879701         357.642         87.0114 
       0.895507         352.958         83.5806 
       0.911279         341.798         80.3426 
        0.92691         337.249         77.3036 
       0.942635         329.988         74.4056 
       0.958396         321.641         71.6507 
       0.974128          316.88          69.041 
       0.989692          311.91         66.5875 
        1.00528         306.073         64.2504 
        1.02113          303.52         61.9893 
        1.03692         295.502         59.8459 
        1.05264         292.262         57.8143 
        1.06832         285.132         55.8805 
        1.08405          280.03         54.0306 
        1.09979          275.93         52.2636 
        1.11537         270.805         50.5936 
        1.13105         264.513         48.9869 
        1.14679         262.175         47.4441 
        1.16256         255.755         45.9649 
        1.17828         253.344          44.554 
        1.19395         248.302         43.2073 
         1.2097         246.292         41.9096 
        1.22537          239.62         40.6717 
          1.241         239.138         39.4877 
        1.25666         232.507         38.3481 
        1.27241         230.261         37.2482 
        1.28819         226.299         36.1898 
        1.30392         221.536         35.1757 
        1.31957         220.974         34.2051 
        1.33529          216.35         33.2677 
        1.35108          211.49         32.3619 
        1.36674         209.839         31.4963 
         1.3824         207.332         30.6633 
        1.39811         205.283         29.8578 
        1.41389          201.77         29.0782 
        1.42964         198.663         28.3279 
        1.44531         195.475         27.6077 
        1.46101         193.695         26.9112 
        1.47667         189.253         26.2408 
        1.49229         187.292         25.5951 
        1.50793         184.287         24.9705 
        1.52367         181.953         24.3628 
        1.53953         178.819         23.7712 
        1.55526          175.09         23.2041 
        1.57092         174.321         22.6579 
        1.58662         171.293          22.128 
        1.60235         168.928         21.6141 
        1.61809          167.04         21.1163 
        1.63369         163.991         20.6386 
        1.64941         160.672         20.1723 
        1.66519         159.647         19.7188 
        1.68085         158.119         19.2825 
        1.69652         154.876         18.8593 
        1.71228          152.34         18.4464 
        1.72806         150.509         18.0456 
        1.74368         148.752         17.6608 
        1.75933         146.558         17.2864 
        1.77505          144.72         16.9211 
        1.79081         143.683         16.5658 
         1.8065         141.409         16.2222 
        1.82218         138.721         15.8887 
        1.83797         137.737         15.5623 
        1.85367         135.665         15.2469 
        1.86928         133.785         14.9421 
        1.88497         131.551          14.644 
        1.90073         130.496          14.353 
        1.91647         128.659         14.0702 
        1.93218         126.739         13.7955 
        1.94787         125.301         13.5287 
        1.96363         123.093         13.2678 
        1.97935         121.534         13.0144 
        1.99499         119.798          12.769 
        2.01064         118.648         12.5296 
         2.0264         116.765         12.2949 
        2.04216         115.487         12.0663 
        2.05781         114.318          11.845 
        2.07353         112.906         11.6284 
        2.08928         110.771         11.4168 
        2.10499         108.979          11.211 
        2.12065          108.06         11.0109 
        2.13633          107.18         10.8156 
        2.15211         105.028         10.6237 
        2.16785         103.233          10.437 
        2.18349         102.479          10.256 
        2.19916         101.315         10.0789 
        2.21489         100.189         9.90539 
        2.23063         98.3789         9.73586 
         2.2463         97.0946         9.57107 
        2.26194         96.4891         9.41051 
        2.27765         95.1115         9.25281 
        2.29341         93.9919         9.09832 
        2.30914         92.7452         8.94768 
        2.32486         91.9964         8.80054 
        2.34061         90.6311         8.65647 
        2.35635         89.2774         8.51576 
        2.37203         88.1616         8.37866 
        2.38768          87.179         8.24487 
        2.40339         86.4314         8.11351 
        2.41914         85.1287         7.98472 
        2.43483         83.9176         7.85918 
         2.4505         83.0324         7.73655 
        2.46622         81.7716         7.61612 
        2.48195         80.8809         7.49825 
        2.49759         79.9863         7.38351 
        2.51328         79.0554         7.27087 
        2.52906           77.65         7.15986 
        2.54479         77.1442          7.0516 
        2.56049         76.2617         6.94578 
        2.57618         75.4459         6.84223 
        2.59189         74.3344         6.74063 
        2.60758         73.8143         6.64126 
        2.62325         72.5774         6.54401 
        2.63898         71.7839         6.44838 
        2.65468          71.031         6.35485 
        2.67044         70.0237         6.26279 
        2.68618         69.1799         6.17276 
        2.70184         68.8262         6.08486 
        2.71755         68.1342         5.99845 
        2.73329         67.0388         5.91359 
        2.74897          66.371         5.83065 
        2.76462         65.4928         5.74949 
        2.78034         64.8068         5.66953 
        2.79607         63.8577         5.59102 
        2.81179         63.2766         5.51408 
        2.82749         62.5022         5.43867 
        2.84321         61.9899          5.3646 
        2.85893         61.1063         5.29192 
        2.87462         60.3588         5.22072 
        2.89033         59.6765         5.15076 
        2.90605         58.9635         5.08202 
        2.92176         58.5792         5.01458 
        2.93747         57.9415         4.94839 
        2.95318         57.2361         4.88338 
        2.96891         56.7272         4.81951 
        2.98456         56.0061         4.75707 
        3.00023         55.3425         4.69565 
        3.01596         54.8897         4.63511 
        3.03164         54.0024         4.57582 
        3.04738         53.5147         4.51739 
         3.0631         53.0555            4.46 
        3.07883         52.3493         4.40361 
        3.09456         51.8939          4.3482 
        3.11026         51.0974         4.29383 
        3.12596         50.6673          4.2404 
        3.14163         50.1338           4.188 
        3.15734         49.6991         4.13636 
        3.17308         49.1308         4.08547 
        3.18879         48.6325         4.03557 
        3.20447         47.8028         3.98658 
         3.2202         47.6092         3.93825 
         3.2359         46.9736         3.89081 
        3.25157         46.5926         3.84427 
        3.26729         46.2211         3.79834 
        3.28304         45.6519         3.75307 
        3.29877         45.1595         3.70861 
        3.31446         44.7446         3.66496 
        3.33014         44.3486         3.62205 
        3.34585         43.8469         3.57976 
        3.36158          43.468         3.53808 
        3.37727         42.9542          3.4972 
        3.39294         42.4567           3.457 
        3.40867         42.0128         3.41729 
        3.42439          41.644         3.37822 
        3.44008         41.1917         3.33984 
        3.45578         40.7213         3.30203 
        3.47153         40.2806         3.26472 
        3.48724         40.0123         3.22806 
        3.50292         39.6343         3.19204 
        3.51859         39.2127         3.15658 
        3.53431         38.7496         3.12156 
        3.55007          38.379         3.08698 
        3.56577         38.0783         3.05307 
        3.58146         37.5623         3.01967 
        3.59719         37.2095          2.9867 
        3.61292         36.8617         2.95423 
        3.62859         36.6676         2.92237 
        3.64429         36.3075         2.89092 
        3.66003         35.8238         2.85983 
        3.67578         35.3895         2.82921 
        3.69146         35.0596         2.79916 
        3.70712         34.8696         2.76959 
        3.72284         34.4413         2.74035 
        3.73853         34.1268         2.71157 
        3.75422         33.8307          2.6832 
        3.76993         33.5736         2.65521 
        3.78564         33.2733         2.62763 
        3.80137         32.9013          2.6004 
        3.81707         32.5118         2.57361 
        3.83279          32.367         2.54718 
        3.84853         31.9606         2.52107 
        3.86424         31.5751         2.49539 
        3.87992         31.3511         2.47009 
        3.89561         31.0781         2.44515 
        3.91134         30.7454          2.4205 
        3.92704         30.5456         2.39622 
        3.94273         30.2068          2.3723 
        3.95845         29.9344         2.34865 
        3.97418         29.7511         2.32533 
        3.98988         29.3877         2.30235 
        4.00554         29.1074         2.27975 
        4.02125         28.8906         2.25739 
        4.03698         28.6099         2.23529 
        4.05268         28.4492         2.21353 
        4.06839         28.0463         2.19205 
         4.0841         27.8077         2.17087 
        4.09983         27.6208         2.14993 
        4.11555         27.3416         2.12927 
        4.13124         26.9916         2.10895 
        4.14693         26.7841         2.08887 
        4.16266         26.5985         2.06901 
        4.17839         26.3293         2.04942 
        4.19408         26.1486         2.03012 
        4.20977         25.8974         2.01107 
        4.22551         25.7127         1.99221 
        4.24123         25.4314         1.97362 
        4.25691         25.2487         1.95531 
        4.27259         24.9854         1.93723 
        4.28831         24.7003         1.91934 
        4.30404          24.537         1.90166 
        4.31974          24.378         1.88425 
        4.33543         24.1089         1.86706 
        4.35116         23.9473         1.85004 
        4.36688         23.7099         1.83324 
        4.38255         23.4844         1.81671 
        4.39825         23.2745         1.80035 
        4.41398         23.0386         1.78416 
         4.4297          22.885         1.76819 
        4.44541         22.6562         1.75241 
        4.46111         22.5034         1.73684 
        4.47683         22.3119         1.72145 
        4.49251         22.0899         1.70627 
        4.50819         21.9091         1.69128 
         4.5239         21.7431         1.67645 
        4.53962          21.522         1.66178 
        4.55535         21.3436         1.64728 
        4.57106         21.1978         1.63297 
        4.58678         21.0194         1.61882 
         4.6025         20.8674         1.60485 
        4.61821         20.7015         1.59104 
        4.63391          20.478         1.57741 
         4.6496         20.3567         1.56394 
        4.66532         20.1234         1.55061 
        4.68103         19.9575         1.53744 
        4.69673         19.8269         1.52444 
        4.71241         19.6939          1.5116 
        4.72811         19.4947         1.49889 
        4.74384         19.3689         1.48631 
        4.75955         19.1788         1.47389 
        4.77525         19.0185         1.46162 
        4.79096         18.8666         1.44947 
        4.80669         18.7722         1.43746 
         4.8224         18.5521         1.42559 
        4.83809         18.3768         1.41388 
        4.85379         18.2637         1.40228 
         4.8695         18.1159         1.39081 
        4.88521         17.9613         1.37947 
        4.90093         17.8717         1.36826 
        4.91663         17.6567         1.35718 
        4.93234         17.4885         1.34621 
        4.94807         17.4145         1.33535 
        4.96377         17.2643         1.32464 
        4.97943         17.1554         1.31406 
        4.99514         16.9607         1.30358 
        5.01086         16.8695          1.2932 
        5.02654         16.7258         1.28295 
        5.04227          16.585         1.27279 
          5.058         16.4295         1.26274 
        5.07371         16.3625         1.25281 
        5.08942         16.2343         1.24299 
        5.10513         16.1067         1.23327 
        5.12084         15.9082         1.22365 
        5.13656         15.8402         1.21414 
        5.15225         15.7191         1.20474 
        5.16796         15.5934         1.19543 
        5.18369         15.4692         1.18621 
         5.1994         15.3482          1.1771 
        5.21509         15.2151          1.1681 
        5.23079          15.118         1.15918 
        5.24649         15.0151         1.15035 
        5.26217         14.8948         1.14163 
        5.27788         14.7358         1.13299 
        5.29359         14.6555         1.12443 
        5.30933         14.5449         1.11595 
        5.32504         14.4334         1.10757 
        5.34073         14.3438         1.09928 
        5.35646         14.2215         1.09107 
        5.37218         14.0963         1.08293 
        5.38789         13.9783          1.0749 
        5.40357         13.9003         1.06695 
        5.41929         13.7864         1.05907 
        5.43502         13.7026         1.05126 
         5.4507         13.6011         1.04355 
        5.46639         13.4804         1.03592 
        5.48212         13.3958         1.02835 
        5.49786         13.3263         1.02084 
        5.51353         13.1813         1.01344 
        5.52921         13.0948         1.00611 
        5.54495         13.0355        0.998836 
        5.56066         12.9264        0.991638 
        5.57637         12.8246        0.984511 
        5.59207         12.7134        0.977461 
        5.60778         12.6424        0.970477 
        5.62346          12.552        0.963571 
        5.63916         12.4305        0.956726 
        5.65487         12.3701        0.949944 
         5.6706         12.2791        0.943219 
        5.68633         12.1707        0.936557 
        5.70203         12.1085        0.929973 
        5.71773         12.0106        0.923454 
        5.73344         11.9145        0.916993 
        5.74916         11.8183        0.910588 
        5.76486         11.7415        0.904253 
        5.78054         11.6728        0.897989 
        5.79626         11.5703        0.891765 
          5.812         11.4852        0.885595 
         5.8277         11.4085        0.879501 
        5.84339         11.3494        0.873465 
        5.85911         11.2636        0.867473 
        5.87484         11.1764        0.861539 
        5.89053         11.1123        0.855671 
        5.90623          10.998        0.849856 
        5.92195          10.936        0.844085 
        5.93767         10.8507         0.83837 
        5.95336         10.8075        0.832718 
        5.96905         10.7217         0.82712 
        5.98476         10.6514        0.821566 
        6.00048         10.5661         0.81606 
        6.01617         10.4912        0.810613 
        6.03185         10.4037        0.805222 
        6.04756         10.3561        0.799866 
        6.06331         10.2856        0.794549 
        6.07903         10.2144         0.78929 
        6.09473         10.1373        0.784084 
        6.11044         10.0787        0.778921 
        6.12616         10.0183        0.773804 
        6.14186         9.91209        0.768739 
        6.15755          9.8583        0.763719 
        6.17326         9.79057         0.75874 
        6.18898         9.75442        0.753804 
        6.20467         9.65666        0.748919 
        6.22036         9.59828        0.744079 
         6.2361         9.55736        0.739268 
         6.2518         9.49417        0.734508 
        6.26748         9.41117          0.7298 
        6.28319         9.34871         0.72512 
        6.29893         9.30021        0.720477 
        6.31463         9.20871        0.715883 
        6.33033         9.17151         0.71133 
        6.34604         9.10212        0.706814 
        6.36177         9.02959        0.702332 
        6.37747          8.9935        0.697898 
