# k  (h/Mpc)    Pcb(k)  (Mpc/h)^3    Pcb_linear(k) (Mpc/h)^3   ShotnoiseSubtracted = true
      0.0200456         75.2376         76.0709 
      0.0350414         59.9306         59.6473 
      0.0492313         47.3152         47.2591 
      0.0637834         38.3009         38.4291 
      0.0800726         29.0905         29.0295 
       0.096163         22.9661         22.8336 
       0.111083         19.3994         19.3286 
       0.126058         16.0552         16.0676 
       0.142273          13.092         13.0748 
       0.158546         11.1372         11.1382 
        0.17375         9.71504         9.69059 
       0.188953         8.34461         8.33096 
       0.204907         7.16672         7.21163 
       0.220756         6.36548         6.37394 
        0.23588         5.65419         5.66144 
         0.2514         5.01981         5.01649 
       0.267535         4.47989         4.47385 
       0.283568         4.01944         4.02014 
       0.299022         3.62954          3.6303 
       0.314451         3.31275         3.29144 
       0.330372         2.99951         2.99272 
       0.346141         2.73771         2.73201 
       0.361624         2.50461         2.50394 
       0.377134         2.29923         2.30224 
       0.392932         2.14244         2.12048 
       0.408854         1.95622         1.95659 
       0.424564         1.82511         1.81144 
       0.440253         1.68709         1.68151 
       0.455999         1.56159         1.56403 
       0.471626         1.45551         1.45837 
        0.48727         1.37044         1.36235 
       0.502856         1.28392         1.27533 
       0.518488         1.19325         1.19569 
       0.534347         1.11633         1.12182 
       0.550082         1.05871          1.0547 
       0.565732         1.00348        0.993406 
       0.581496        0.940002        0.936598 
       0.597222        0.886989        0.884353 
       0.612804        0.838732        0.836535 
       0.628434        0.793217        0.792137 
       0.644267        0.754605        0.750458 
       0.660051        0.716273        0.711904 
       0.675724        0.677413        0.676308 
       0.691403        0.644023        0.643142 
       0.707174        0.613262        0.612033 
       0.722871         0.59024        0.583121 
        0.73838        0.556803        0.556397 
       0.754018        0.531152        0.531153 
       0.769845        0.505091        0.507205 
        0.78569        0.485946        0.484716 
       0.801365        0.465886        0.463813 
       0.817031        0.446402        0.444161 
       0.832809        0.426028        0.425524 
       0.848511         0.40912        0.408044 
       0.864097         0.39414        0.391668 
       0.879701        0.379642        0.376178 
       0.895507        0.361258        0.361345 
       0.911279        0.349306        0.347346 
        0.92691        0.337637        0.334207 
       0.942635        0.322334        0.321679 
       0.958396        0.311243        0.309768 
       0.974128        0.300013        0.298486 
       0.989692        0.289445        0.287879 
        1.00528        0.277765        0.277774 
        1.02113         0.27035        0.267999 
        1.03692        0.260976        0.258733 
        1.05264        0.251027        0.249949 
        1.06832        0.242933        0.241589 
        1.08405        0.234381        0.233591 
        1.09979        0.227318        0.225952 
        1.11537        0.218714        0.218732 
        1.13105         0.21151        0.211786 
        1.14679        0.205606        0.205115 
        1.16256        0.200003        0.198721 
        1.17828        0.193869        0.192621 
        1.19395        0.188135        0.186799 
         1.2097        0.181931        0.181188 
        1.22537        0.176019        0.175836 
          1.241        0.171078        0.170718 
        1.25666        0.166805        0.165791 
        1.27241        0.161453        0.161036 
        1.28819         0.15673         0.15646 
        1.30392        0.152949        0.152076 
        1.31957        0.148295        0.147879 
        1.33529        0.144772        0.143827 
        1.35108        0.140087         0.13991 
        1.36674        0.136886        0.136168 
         1.3824        0.132873        0.132567 
        1.39811         0.12906        0.129085 
        1.41389        0.126458        0.125714 
        1.42964        0.122814         0.12247 
        1.44531        0.119573        0.119357 
        1.46101        0.116296        0.116345 
        1.47667        0.113681        0.113447 
        1.49229        0.110933        0.110656 
        1.50793        0.108168        0.107955 
        1.52367        0.105501        0.105328 
        1.53953        0.102631         0.10277 
        1.55526        0.100231        0.100319 
        1.57092       0.0984003       0.0979572 
        1.58662       0.0958955       0.0956664 
        1.60235       0.0935208       0.0934445 
        1.61809       0.0913432       0.0912923 
        1.63369       0.0892241       0.0892272 
        1.64941       0.0871977       0.0872114 
        1.66519       0.0853215       0.0852507 
        1.68085       0.0832746       0.0833644 
        1.69652       0.0816247       0.0815347 
        1.71228       0.0795475       0.0797497 
        1.72806       0.0781078       0.0780168 
        1.74368       0.0762459       0.0763529 
        1.75933       0.0747574       0.0747344 
        1.77505       0.0732851       0.0731553 
        1.79081       0.0715625       0.0716191 
         1.8065        0.070164       0.0701337 
        1.82218       0.0684286       0.0686918 
        1.83797        0.067149       0.0672806 
        1.85367       0.0656718        0.065917 
        1.86928        0.064123       0.0645994 
        1.88497       0.0630271       0.0633108 
        1.90073        0.061564       0.0620525 
        1.91647       0.0607827       0.0608297 
        1.93218       0.0597935       0.0596424 
        1.94787       0.0581647       0.0584887 
        1.96363       0.0570623       0.0573609 
        1.97935       0.0559334       0.0562653 
        1.99499       0.0549845       0.0552045 
        2.01064       0.0538466       0.0541696 
         2.0264       0.0529781       0.0531547 
        2.04216       0.0519937       0.0521664 
        2.05781       0.0508152       0.0512095 
        2.07353       0.0499706       0.0502732 
        2.08928        0.049142       0.0493583 
        2.10499       0.0482414       0.0484687 
        2.12065       0.0473549       0.0476037 
        2.13633       0.0464839        0.046759 
        2.15211       0.0457111       0.0459295 
        2.16785       0.0446125       0.0451224 
        2.18349       0.0439875       0.0443398 
        2.19916       0.0431406       0.0435742 
        2.21489       0.0423915       0.0428241 
        2.23063       0.0418108       0.0420912 
         2.2463        0.041062       0.0413787 
        2.26194       0.0403722       0.0406846 
        2.27765       0.0397539       0.0400028 
        2.29341       0.0388854       0.0393349 
        2.30914       0.0382756       0.0386836 
        2.32486       0.0375849       0.0380475 
        2.34061        0.036966       0.0374246 
        2.35635       0.0364301       0.0368163 
        2.37203       0.0360685       0.0362236 
        2.38768       0.0354692       0.0356451 
        2.40339       0.0347755       0.0350772 
        2.41914       0.0341544       0.0345204 
        2.43483       0.0337386       0.0339777 
         2.4505        0.033089       0.0334475 
        2.46622       0.0325511       0.0329269 
        2.48195       0.0320423       0.0324173 
        2.49759       0.0315671       0.0319212 
        2.51328       0.0309747       0.0314342 
        2.52906       0.0305653       0.0309543 
        2.54479       0.0301648       0.0304862 
        2.56049       0.0296001       0.0300288 
        2.57618       0.0292174       0.0295811 
        2.59189       0.0286763       0.0291418 
        2.60758       0.0284229       0.0287122 
        2.62325       0.0278063       0.0282918 
        2.63898       0.0275182       0.0278783 
        2.65468       0.0270166        0.027474 
        2.67044       0.0266351        0.027076 
        2.68618       0.0262378       0.0266867 
        2.70184       0.0260274       0.0263067 
        2.71755       0.0255788       0.0259332 
        2.73329       0.0252662       0.0255663 
        2.74897       0.0248365       0.0252077 
        2.76462       0.0244458       0.0248568 
        2.78034       0.0241671       0.0245112 
        2.79607        0.023803       0.0241717 
        2.81179       0.0234758       0.0238391 
        2.82749       0.0232072       0.0235131 
        2.84321       0.0228176       0.0231928 
        2.85893       0.0225253       0.0228786 
        2.87462       0.0222048       0.0225708 
        2.89033       0.0219159       0.0222683 
        2.90605       0.0215664       0.0219712 
        2.92176       0.0213912       0.0216796 
        2.93747       0.0210091       0.0213934 
        2.95318       0.0207877       0.0211124 
        2.96891       0.0204669       0.0208363 
        2.98456        0.020171       0.0205663 
        3.00023       0.0200409       0.0203007 
        3.01596       0.0196527        0.020039 
        3.03164        0.019424       0.0197827 
        3.04738        0.019196       0.0195301 
         3.0631       0.0188536        0.019282 
        3.07883       0.0187273       0.0190382 
        3.09456       0.0184717       0.0187986 
        3.11026       0.0181719       0.0185636 
        3.12596       0.0180476       0.0183326 
        3.14163       0.0177976        0.018106 
        3.15734       0.0176065       0.0178828 
        3.17308       0.0173865       0.0176627 
        3.18879       0.0171225        0.017447 
        3.20447       0.0169355       0.0172352 
         3.2202       0.0167197       0.0170263 
         3.2359       0.0165326       0.0168212 
        3.25157       0.0163262         0.01662 
        3.26729       0.0161488       0.0164214 
        3.28304       0.0159852       0.0162257 
        3.29877       0.0157719       0.0160335 
        3.31446       0.0155501       0.0158447 
        3.33014       0.0154053       0.0156592 
        3.34585       0.0152634       0.0154764 
        3.36158        0.015059       0.0152962 
        3.37727       0.0148524       0.0151195 
        3.39294       0.0147038       0.0149457 
        3.40867       0.0145781        0.014774 
        3.42439       0.0143953       0.0146051 
        3.44008       0.0142419       0.0144392 
        3.45578       0.0140534       0.0142757 
        3.47153        0.013935       0.0141144 
        3.48724       0.0137617       0.0139559 
        3.50292       0.0136541       0.0138002 
        3.51859       0.0135233       0.0136469 
        3.53431       0.0133496       0.0134955 
        3.55007       0.0132126        0.013346 
        3.56577       0.0130748       0.0131994 
        3.58146       0.0129141        0.013055 
        3.59719        0.012842       0.0129124 
        3.61292       0.0126794       0.0127721 
        3.62859       0.0125123       0.0126343 
        3.64429       0.0124238       0.0124983 
        3.66003        0.012324       0.0123639 
        3.67578       0.0121811       0.0122316 
        3.69146       0.0120772       0.0121016 
        3.70712       0.0119394       0.0119738 
        3.72284       0.0118248       0.0118474 
        3.73853       0.0116901        0.011723 
        3.75422       0.0116026       0.0116003 
        3.76993        0.011498       0.0114793 
        3.78564       0.0113942       0.0113601 
        3.80137       0.0112874       0.0112423 
        3.81707       0.0111512       0.0111265 
        3.83279       0.0110448       0.0110122 
        3.84853       0.0109617       0.0108994 
        3.86424       0.0108484       0.0107883 
        3.87992       0.0107898        0.010679 
        3.89561       0.0106841       0.0105711 
        3.91134       0.0105736       0.0104646 
        3.92704       0.0104966       0.0103596 
        3.94273       0.0104118       0.0102562 
        3.95845       0.0103058        0.010154 
        3.97418       0.0102137       0.0100531 
        3.98988       0.0100878      0.00995379 
        4.00554       0.0100093      0.00985607 
        4.02125      0.00990119      0.00975938 
        4.03698      0.00976192      0.00966384 
        4.05268      0.00966719       0.0095698 
        4.06839      0.00956491      0.00947693 
         4.0841      0.00942073      0.00938533 
        4.09983      0.00933233      0.00929481 
        4.11555      0.00922354      0.00920552 
        4.13124      0.00911803      0.00911764 
        4.14693      0.00902301      0.00903084 
        4.16266      0.00892097      0.00894497 
        4.17839      0.00882942      0.00886027 
        4.19408      0.00871889      0.00877685 
        4.20977      0.00862271      0.00869447 
        4.22551      0.00855264      0.00861295 
        4.24123      0.00847683      0.00853256 
        4.25691      0.00841558      0.00845342 
        4.27259      0.00830401      0.00837525 
        4.28831      0.00824395      0.00829792 
        4.30404      0.00817203      0.00822148 
        4.31974      0.00812938      0.00814618 
        4.33543      0.00805388      0.00807186 
        4.35116      0.00797087      0.00799829 
        4.36688      0.00792779      0.00792567 
        4.38255      0.00790328      0.00785421 
        4.39825      0.00786247      0.00778349 
        4.41398      0.00778945      0.00771349 
         4.4297      0.00775379      0.00764443 
        4.44541       0.0077188      0.00757622 
        4.46111      0.00766232       0.0075089 
        4.47683      0.00765889      0.00744235 
        4.49251       0.0076079      0.00737674 
        4.50819      0.00757561      0.00731193 
         4.5239      0.00754755      0.00724782 
        4.53962      0.00753669      0.00718439 
        4.55535      0.00750941      0.00712169 
        4.57106      0.00752403      0.00705982 
        4.58678      0.00748867      0.00699868 
         4.6025      0.00748136      0.00693825 
        4.61821       0.0074743      0.00687854 
        4.63391      0.00747777      0.00681962 
         4.6496      0.00746106       0.0067614 
        4.66532      0.00747691      0.00670377 
        4.68103      0.00745988      0.00664685 
        4.69673      0.00746436      0.00659063 
        4.71241      0.00752995      0.00653512 
        4.72811      0.00753539      0.00648016 
        4.74384      0.00755344      0.00642577 
        4.75955      0.00755712      0.00637208 
        4.77525      0.00757294      0.00631903 
        4.79096      0.00762174      0.00626652 
        4.80669      0.00764744      0.00621458 
         4.8224      0.00769937      0.00616329 
        4.83809      0.00773061      0.00611263 
        4.85379      0.00779174      0.00606251 
         4.8695      0.00779977      0.00601291 
        4.88521       0.0078642      0.00596389 
        4.90093      0.00789524       0.0059154 
        4.91663      0.00797568       0.0058675 
        4.93234       0.0080173      0.00582008 
        4.94807      0.00807762      0.00577315 
        4.96377      0.00815018      0.00572682 
        4.97943      0.00827377       0.0056811 
        4.99514      0.00829592      0.00563577 
        5.01086      0.00837616      0.00559089 
        5.02654      0.00844433      0.00554661 
        5.04227      0.00853187      0.00550269 
          5.058      0.00864788      0.00545921 
        5.07371      0.00872108       0.0054163 
        5.08942      0.00886413      0.00537384 
        5.10513      0.00891384      0.00533182 
        5.12084      0.00901194      0.00529024 
        5.13656      0.00912588      0.00524911 
        5.15225       0.0092546      0.00520849 
        5.16796      0.00942263      0.00516823 
        5.18369      0.00951191      0.00512835 
         5.1994      0.00965761      0.00508898 
        5.21509      0.00976113      0.00505005 
        5.23079      0.00988069      0.00501148 
        5.24649       0.0100376      0.00497334 
        5.26217       0.0101912      0.00493563 
        5.27788       0.0103384      0.00489825 
        5.29359       0.0104773      0.00486126 
        5.30933       0.0106649      0.00482459 
        5.32504       0.0108239      0.00478837 
        5.34073       0.0109865      0.00475255 
        5.35646       0.0112145      0.00471703 
        5.37218        0.011425      0.00468186 
        5.38789       0.0115449      0.00464711 
        5.40357       0.0117358      0.00461276 
        5.41929       0.0119407      0.00457867 
        5.43502       0.0122218      0.00454492 
         5.4507       0.0123853       0.0045116 
        5.46639       0.0125846       0.0044786 
        5.48212       0.0127844      0.00444586 
        5.49786       0.0131595       0.0044134 
        5.51353       0.0133747      0.00438143 
        5.52921       0.0135581      0.00434975 
        5.54495       0.0138316      0.00431828 
        5.56066       0.0141419      0.00428716 
        5.57637       0.0144124      0.00425635 
        5.59207       0.0147011      0.00422587 
        5.60778       0.0150395      0.00419568 
        5.62346       0.0152967      0.00416582 
        5.63916       0.0155212      0.00413622 
        5.65487       0.0158993       0.0041069 
         5.6706        0.016197      0.00407783 
        5.68633        0.016579      0.00404903 
        5.70203       0.0169366      0.00402056 
        5.71773       0.0173338      0.00399238 
        5.73344       0.0175508      0.00396445 
        5.74916       0.0179849      0.00393676 
        5.76486       0.0184589      0.00390937 
        5.78054       0.0187864      0.00388228 
        5.79626       0.0191932      0.00385538 
          5.812       0.0196579       0.0038287 
         5.8277        0.020006      0.00380236 
        5.84339        0.020507      0.00377626 
        5.85911       0.0211062      0.00375036 
        5.87484       0.0215512       0.0037247 
        5.89053       0.0219786      0.00369933 
        5.90623       0.0226223      0.00367419 
        5.92195       0.0229621      0.00364924 
        5.93767        0.023558      0.00362454 
        5.95336       0.0242215       0.0036001 
        5.96905        0.024755       0.0035759 
        5.98476       0.0251715      0.00355188 
        6.00048       0.0260073      0.00352808 
        6.01617       0.0264222      0.00350453 
        6.03185       0.0270542      0.00348122 
        6.04756       0.0279355      0.00345807 
        6.06331       0.0285235      0.00343508 
        6.07903       0.0292538      0.00341235 
        6.09473       0.0298821      0.00338984 
        6.11044       0.0308917      0.00336752 
        6.12616       0.0314033       0.0033454 
        6.14186       0.0323734       0.0033235 
        6.15755        0.033204       0.0033018 
        6.17326       0.0338458      0.00328027 
        6.18898       0.0347516      0.00325893 
        6.20467       0.0356736      0.00323781 
        6.22036       0.0368857      0.00321689 
         6.2361       0.0375479      0.00319609 
         6.2518       0.0385993      0.00317551 
        6.26748       0.0393746      0.00315515 
        6.28319       0.0408873      0.00313492 
        6.29893       0.0417889      0.00311485 
        6.31463       0.0431186      0.00309498 
        6.33033       0.0437606       0.0030753 
        6.34604       0.0449309      0.00305578 
        6.36177       0.0461062       0.0030364 
        6.37747       0.0478504      0.00301723 
