# k  (h/Mpc)    Pcb(k)  (Mpc/h)^3    Pcb_linear(k) (Mpc/h)^3   ShotnoiseSubtracted = true
      0.0200456         10419.1         10551.5 
      0.0350414         8458.67         8273.46 
      0.0492313         6460.67         6555.13 
      0.0637834         5126.42         5330.36 
      0.0800726         3880.34         4026.58 
       0.096163         3234.61         3167.16 
       0.111083         2765.02            2681 
       0.126058         2203.69         2228.67 
       0.142273         1848.69         1813.55 
       0.158546         1592.25         1544.94 
        0.17375         1420.85         1344.15 
       0.188953         1280.65         1155.56 
       0.204907         1085.66          1000.3 
       0.220756          988.46         884.105 
        0.23588         886.365         785.277 
         0.2514         790.697         695.818 
       0.267535          762.47         620.551 
       0.283568         670.131         557.619 
       0.299022         640.294         503.546 
       0.314451         644.937         456.544 
       0.330372         554.892          415.11 
       0.346141         515.496         378.947 
       0.361624         492.718         347.312 
       0.377134         461.034         319.335 
       0.392932         447.906         294.124 
       0.408854         425.128         271.392 
       0.424564         410.782         251.258 
       0.440253          371.95         233.236 
       0.455999         356.488         216.941 
       0.471626         356.495         202.285 
        0.48727         338.916         188.966 
       0.502856          311.18         176.896 
       0.518488         311.941          165.85 
       0.534347         289.857         155.603 
       0.550082         282.397         146.293 
       0.565732         280.286         137.792 
       0.581496         265.217         129.912 
       0.597222         258.579         122.665 
       0.612804         251.903         116.033 
       0.628434         241.811         109.874 
       0.644267         231.278         104.093 
       0.660051         226.688         98.7455 
       0.675724         225.132         93.8081 
       0.691403         217.972         89.2078 
       0.707174         210.979         84.8928 
       0.722871         207.631         80.8826 
        0.73838         205.988         77.1758 
       0.754018         194.213         73.6743 
       0.769845         193.785         70.3526 
        0.78569         189.044         67.2331 
       0.801365         184.431         64.3338 
       0.817031          179.14         61.6079 
       0.832809         176.436         59.0229 
       0.848511         172.131         56.5982 
       0.864097         168.301         54.3268 
       0.879701         166.988         52.1782 
       0.895507         162.339         50.1208 
       0.911279         158.051         48.1791 
        0.92691          155.49         46.3567 
       0.942635         153.295         44.6189 
       0.958396         150.407         42.9668 
       0.974128         147.031         41.4018 
       0.989692          143.47         39.9306 
        1.00528         141.952          38.529 
        1.02113         138.492         37.1731 
        1.03692          137.27         35.8878 
        1.05264         135.247         34.6695 
        1.06832         131.997         33.5099 
        1.08405         130.316         32.4005 
        1.09979         129.393          31.341 
        1.11537          125.96         30.3395 
        1.13105         124.835          29.376 
        1.14679         122.299         28.4508 
        1.16256         120.229         27.5638 
        1.17828          118.73         26.7177 
        1.19395         115.589         25.9101 
         1.2097         115.347          25.132 
        1.22537         112.604         24.3896 
          1.241         111.979         23.6796 
        1.25666         108.403         22.9962 
        1.27241         106.898         22.3366 
        1.28819         106.172         21.7019 
        1.30392         104.015         21.0938 
        1.31957         102.753         20.5118 
        1.33529         101.393         19.9497 
        1.35108         100.529         19.4065 
        1.36674         98.6449         18.8874 
         1.3824          98.058         18.3879 
        1.39811         95.4099         17.9048 
        1.41389         94.5779         17.4373 
        1.42964         92.8964         16.9874 
        1.44531         91.7962         16.5555 
        1.46101         90.7083         16.1378 
        1.47667         89.8359         15.7358 
        1.49229         88.8454         15.3486 
        1.50793         87.1919         14.9741 
        1.52367         86.4729         14.6096 
        1.53953         84.9517         14.2549 
        1.55526         83.7571         13.9148 
        1.57092          83.445         13.5873 
        1.58662         82.1091         13.2695 
        1.60235         80.7546         12.9613 
        1.61809         79.8942         12.6628 
        1.63369         78.6067         12.3764 
        1.64941         78.4812         12.0968 
        1.66519         76.6626         11.8248 
        1.68085         75.9631         11.5632 
        1.69652         74.3061         11.3094 
        1.71228         73.9094         11.0618 
        1.72806         73.1154         10.8214 
        1.74368         72.0503         10.5906 
        1.75933         71.3323         10.3661 
        1.77505         70.7225         10.1471 
        1.79081         69.3962         9.93402 
         1.8065         69.1843         9.72798 
        1.82218         67.2822         9.52798 
        1.83797         67.0851         9.33225 
        1.85367         66.1769          9.1431 
        1.86928         65.4615         8.96035 
        1.88497         64.5721          8.7816 
        1.90073         63.7148         8.60708 
        1.91647         62.9337         8.43746 
        1.93218          62.508         8.27278 
        1.94787         61.6115         8.11275 
        1.96363         60.6564         7.95632 
        1.97935         60.0717         7.80435 
        1.99499         59.4718         7.65721 
        2.01064         58.7948         7.51366 
         2.0264         58.0939         7.37289 
        2.04216         57.3182         7.23581 
        2.05781         56.6205         7.10308 
        2.07353          55.871         6.97321 
        2.08928         55.4112         6.84631 
        2.10499         54.7287         6.72291 
        2.12065         54.2493         6.60293 
        2.13633         53.6452         6.48577 
        2.15211         52.8456         6.37071 
        2.16785         52.1425         6.25876 
        2.18349         51.4644         6.15021 
        2.19916         50.9015         6.04401 
        2.21489         50.5807         5.93997 
        2.23063         49.6411         5.83831 
         2.2463          49.323         5.73949 
        2.26194         48.8606         5.64321 
        2.27765          48.162         5.54864 
        2.29341         47.4105           5.456 
        2.30914         46.9944         5.36566 
        2.32486         46.4215         5.27743 
        2.34061         46.0973         5.19103 
        2.35635         45.3567         5.10665 
        2.37203         45.0031         5.02443 
        2.38768         44.4988          4.9442 
        2.40339         44.0773         4.86543 
        2.41914         43.5744          4.7882 
        2.43483         42.8532         4.71292 
         2.4505         42.5482         4.63938 
        2.46622         42.1452         4.56716 
        2.48195         41.5636         4.49648 
        2.49759         41.1097         4.42767 
        2.51328          40.718         4.36012 
        2.52906         40.2573         4.29356 
        2.54479         39.8074         4.22863 
        2.56049         39.3918         4.16518 
        2.57618         39.0094         4.10308 
        2.59189         38.4742         4.04216 
        2.60758          38.041         3.98257 
        2.62325         37.7933         3.92425 
        2.63898         37.3327          3.8669 
        2.65468         36.9511         3.81082 
        2.67044         36.5754         3.75561 
        2.68618         36.3202         3.70162 
        2.70184         35.6803         3.64891 
        2.71755          35.489         3.59709 
        2.73329         34.8721         3.54621 
        2.74897         34.5426         3.49647 
        2.76462         34.1593          3.4478 
        2.78034         33.9749         3.39985 
        2.79607         33.4655         3.35277 
        2.81179         33.2031         3.30663 
        2.82749         32.7977         3.26141 
        2.84321         32.4739         3.21699 
        2.85893         32.1569         3.17341 
        2.87462         31.7697         3.13071 
        2.89033         31.5384         3.08876 
        2.90605         31.2767         3.04754 
        2.92176         30.9793         3.00709 
        2.93747         30.5822          2.9674 
        2.95318         30.2538         2.92842 
        2.96891         30.0535         2.89012 
        2.98456         29.6621         2.85268 
        3.00023         29.3091         2.81584 
        3.01596         29.0823         2.77954 
        3.03164         28.8051         2.74398 
        3.04738         28.5288         2.70895 
         3.0631         28.2371         2.67453 
        3.07883         27.8614         2.64072 
        3.09456         27.5783         2.60749 
        3.11026         27.2547         2.57488 
        3.12596         27.0092         2.54284 
        3.14163         26.7805         2.51142 
        3.15734         26.5046         2.48045 
        3.17308         26.2148         2.44993 
        3.18879          25.941         2.42001 
        3.20447         25.6653         2.39064 
         3.2202         25.3986         2.36165 
         3.2359         25.1618         2.33321 
        3.25157         24.9734         2.30529 
        3.26729         24.7025         2.27775 
        3.28304         24.3711         2.25061 
        3.29877         24.2022         2.22394 
        3.31446         23.8867         2.19777 
        3.33014         23.7049         2.17203 
        3.34585         23.5352         2.14667 
        3.36158          23.247         2.12168 
        3.37727         23.0456         2.09717 
        3.39294         22.7936         2.07306 
        3.40867         22.6031         2.04925 
        3.42439         22.3958         2.02582 
        3.44008          22.137         2.00281 
        3.45578         22.0042         1.98013 
        3.47153         21.6816         1.95776 
        3.48724         21.5817         1.93577 
        3.50292         21.2887         1.91417 
        3.51859         21.1291         1.89291 
        3.53431         20.9405         1.87191 
        3.55007         20.7156         1.85117 
        3.56577          20.561         1.83083 
        3.58146          20.312         1.81081 
        3.59719          20.146         1.79104 
        3.61292         19.9462         1.77157 
        3.62859         19.7111         1.75246 
        3.64429         19.5268          1.7336 
        3.66003         19.4493         1.71496 
        3.67578         19.2433         1.69659 
        3.69146         19.0113         1.67857 
        3.70712         18.8419         1.66084 
        3.72284         18.6613          1.6433 
        3.73853         18.4775         1.62605 
        3.75422          18.275         1.60904 
        3.76993         18.1908         1.59225 
        3.78564         18.0464         1.57571 
        3.80137         17.8396         1.55938 
        3.81707         17.6406         1.54332 
        3.83279         17.4998         1.52747 
        3.84853         17.3409         1.51181 
        3.86424         17.1601         1.49641 
        3.87992         17.0152         1.48124 
        3.89561          16.839         1.46628 
        3.91134         16.7071          1.4515 
        3.92704         16.5526         1.43694 
        3.94273         16.4124          1.4226 
        3.95845         16.2183         1.40842 
        3.97418          16.094         1.39443 
        3.98988         15.9722         1.38065 
        4.00554         15.8891          1.3671 
        4.02125         15.6211         1.35369 
        4.03698         15.5278         1.34044 
        4.05268         15.4291         1.32739 
        4.06839         15.2717         1.31451 
         4.0841         15.1317          1.3018 
        4.09983         14.9469         1.28925 
        4.11555         14.8554         1.27686 
        4.13124         14.7307         1.26467 
        4.14693         14.6316         1.25263 
        4.16266         14.5007         1.24072 
        4.17839         14.3493         1.22897 
        4.19408         14.2001          1.2174 
        4.20977         14.1071         1.20598 
        4.22551          13.944         1.19467 
        4.24123         13.8456         1.18352 
        4.25691          13.724         1.17254 
        4.27259         13.5881          1.1617 
        4.28831         13.5245         1.15097 
        4.30404         13.4183         1.14037 
        4.31974         13.2738         1.12993 
        4.33543         13.1354         1.11962 
        4.35116         13.0542         1.10941 
        4.36688         12.9256         1.09934 
        4.38255          12.826         1.08943 
        4.39825         12.7323         1.07962 
        4.41398         12.5961         1.06991 
         4.4297         12.4967         1.06033 
        4.44541         12.3799         1.05087 
        4.46111         12.3112         1.04153 
        4.47683          12.179          1.0323 
        4.49251         12.0773          1.0232 
        4.50819         11.9897         1.01421 
         4.5239         11.8887         1.00532 
        4.53962          11.785         0.99652 
        4.55535          11.698        0.987823 
        4.57106         11.6088        0.979242 
        4.58678         11.4979        0.970761 
         4.6025         11.3989        0.962379 
        4.61821         11.3158        0.954097 
        4.63391         11.1997        0.945923 
         4.6496         11.1499        0.937849 
        4.66532         11.0381        0.929856 
        4.68103          10.955        0.921959 
        4.69673         10.8402        0.914162 
        4.71241          10.773        0.906463 
        4.72811         10.6881        0.898839 
        4.74384         10.5908        0.891294 
        4.75955         10.5192        0.883847 
        4.77525         10.4348        0.876489 
        4.79096         10.3387        0.869205 
        4.80669          10.275        0.862001 
         4.8224         10.1951        0.854887 
        4.83809          10.108         0.84786 
        4.85379         10.0248        0.840908 
         4.8695         9.93206        0.834028 
        4.88521         9.86621        0.827229 
        4.90093         9.79908        0.820504 
        4.91663         9.69699        0.813859 
        4.93234         9.61888        0.807281 
        4.94807         9.55734        0.800772 
        4.96377         9.48538        0.794346 
        4.97943         9.40768        0.788005 
        4.99514         9.32187        0.781716 
        5.01086         9.28607        0.775491 
        5.02654         9.20355         0.76935 
        5.04227         9.11582        0.763257 
          5.058         9.03628        0.757227 
        5.07371         8.98777        0.751274 
        5.08942         8.90483        0.745385 
        5.10513         8.84199        0.739558 
        5.12084          8.7847         0.73379 
        5.13656         8.70309        0.728085 
        5.15225          8.6554         0.72245 
        5.16796         8.58095        0.716865 
        5.18369         8.49586        0.711335 
         5.1994         8.45947        0.705873 
        5.21509         8.38481        0.700473 
        5.23079         8.30048        0.695123 
        5.24649         8.24497        0.689834 
        5.26217         8.18838        0.684603 
        5.27788         8.14297        0.679419 
        5.29359         8.07444        0.674287 
        5.30933         8.01964        0.669201 
        5.32504         7.96549        0.664176 
        5.34073         7.89956        0.659208 
        5.35646         7.83265        0.654282 
        5.37218           7.778        0.649404 
        5.38789         7.70443        0.644584 
        5.40357         7.67901        0.639818 
        5.41929         7.61887         0.63509 
        5.43502         7.56162        0.630409 
         5.4507         7.49807        0.625787 
        5.46639         7.44662         0.62121 
        5.48212         7.38415        0.616668 
        5.49786         7.34235        0.612167 
        5.51353         7.29302        0.607732 
        5.52921         7.23906        0.603337 
        5.54495         7.18352        0.598972 
        5.56066         7.13652        0.594656 
        5.57637         7.07543        0.590382 
        5.59207         7.03016        0.586155 
        5.60778         6.96749        0.581967 
        5.62346         6.93843        0.577825 
        5.63916         6.87411         0.57372 
        5.65487         6.82805        0.569653 
         5.6706         6.78178        0.565621 
        5.68633         6.73371        0.561626 
        5.70203          6.6772        0.557677 
        5.71773         6.65127        0.553768 
        5.73344         6.59859        0.549894 
        5.74916         6.55016        0.546053 
        5.76486         6.51795        0.542254 
        5.78054         6.45178        0.538497 
        5.79626         6.42182        0.534765 
          5.812         6.36693        0.531065 
         5.8277         6.32747        0.527411 
        5.84339         6.29421        0.523791 
        5.85911         6.23557        0.520198 
        5.87484          6.1967        0.516639 
        5.89053         6.14946        0.513121 
        5.90623         6.11585        0.509634 
        5.92195         6.07694        0.506173 
        5.93767          6.0243        0.502746 
        5.95336         5.98582        0.499356 
        5.96905          5.9555           0.496 
        5.98476          5.9144        0.492669 
        6.00048         5.86659        0.489367 
        6.01617         5.82278        0.486101 
        6.03185         5.79384        0.482868 
        6.04756         5.74821        0.479656 
        6.06331         5.71654        0.476467 
        6.07903          5.6857        0.473314 
        6.09473         5.63505        0.470192 
        6.11044         5.60259        0.467096 
        6.12616         5.56299        0.464028 
        6.14186         5.52176         0.46099 
        6.15755         5.49669         0.45798 
        6.17326         5.45153        0.454994 
        6.18898         5.40915        0.452034 
        6.20467         5.38151        0.449105 
        6.22036         5.34584        0.446202 
         6.2361         5.30679        0.443317 
         6.2518         5.27113        0.440463 
        6.26748         5.23972        0.437639 
        6.28319         5.20774        0.434833 
        6.29893         5.18044        0.432049 
        6.31463         5.15092        0.429294 
        6.33033          5.1152        0.426564 
        6.34604         5.08321        0.423855 
        6.36177         5.04155        0.421168 
        6.37747         5.01352        0.418509 
