# k  (h/Mpc)    Pcb(k)  (Mpc/h)^3    Pcb_linear(k) (Mpc/h)^3   ShotnoiseSubtracted = true
      0.0200456         2592.79         2628.13 
      0.0350414         2034.96         2060.72 
      0.0492313          1628.6         1632.73 
      0.0637834          1342.7         1327.67 
      0.0800726         1021.06         1002.92 
       0.096163         779.985         788.864 
       0.111083         652.369         667.772 
       0.126058         560.413         555.109 
       0.142273         463.462         451.713 
       0.158546         395.178         384.806 
        0.17375         333.655         334.795 
       0.188953         298.184         287.821 
       0.204907         270.851          249.15 
       0.220756         233.121         220.209 
        0.23588         206.499         195.594 
         0.2514         181.211         173.312 
       0.267535         166.079         154.564 
       0.283568         150.891          138.89 
       0.299022          138.46         125.421 
       0.314451         123.874         113.714 
       0.330372         114.713         103.394 
       0.346141         104.336         94.3866 
       0.361624          97.516         86.5072 
       0.377134         91.7584         79.5386 
       0.392932         81.6751         73.2591 
       0.408854         78.6404         67.5972 
       0.424564         74.5475         62.5822 
       0.440253         68.7541         58.0934 
       0.455999         64.9382         54.0347 
       0.471626         60.5772         50.3843 
        0.48727         58.0628         47.0669 
       0.502856         54.5893         44.0607 
       0.518488         52.2845         41.3093 
       0.534347         50.1519          38.757 
       0.550082         46.0043         36.4382 
       0.565732         43.1464         34.3206 
       0.581496         42.1396          32.358 
       0.597222         40.7359          30.553 
       0.612804         38.1072         28.9009 
       0.628434         36.8365         27.3671 
       0.644267         35.8768         25.9271 
       0.660051         34.1064         24.5951 
       0.675724         32.4037         23.3653 
       0.691403         31.3655         22.2195 
       0.707174         30.3842         21.1448 
       0.722871         29.1399         20.1459 
        0.73838         28.1857         19.2226 
       0.754018         27.0475         18.3505 
       0.769845         26.2106         17.5231 
        0.78569          25.415         16.7462 
       0.801365         24.4588          16.024 
       0.817031         23.8571          15.345 
       0.832809         23.3725         14.7012 
       0.848511         21.9679         14.0973 
       0.864097         21.5664         13.5315 
       0.879701         21.0273         12.9963 
       0.895507         20.4133         12.4839 
       0.911279         19.8638         12.0003 
        0.92691         19.3294         11.5463 
       0.942635         18.5689         11.1135 
       0.958396         18.1766          10.702 
       0.974128         17.6485         10.3122 
       0.989692         17.5077         9.94575 
        1.00528         17.0056         9.59666 
        1.02113         16.3187         9.25894 
        1.03692         15.9807          8.9388 
        1.05264          15.632         8.63534 
        1.06832         15.2939         8.34652 
        1.08405         14.8374          8.0702 
        1.09979         14.5258         7.80628 
        1.11537         14.2774         7.55684 
        1.13105         13.9598         7.31685 
        1.14679         13.7428         7.08641 
        1.16256         13.2738         6.86549 
        1.17828         13.2305         6.65475 
        1.19395         12.7416          6.4536 
         1.2097         12.5445         6.25977 
        1.22537         12.2296         6.07487 
          1.241         12.0638         5.89802 
        1.25666         11.8204          5.7278 
        1.27241          11.529         5.56352 
        1.28819         11.3044         5.40543 
        1.30392         11.1996         5.25397 
        1.31957         10.9765           5.109 
        1.33529         10.7881         4.96899 
        1.35108         10.5015         4.83368 
        1.36674         10.4516          4.7044 
         1.3824         10.1363         4.57998 
        1.39811          9.9995         4.45967 
        1.41389          9.8521         4.34322 
        1.42964         9.72606         4.23115 
        1.44531         9.56412         4.12359 
        1.46101         9.34822         4.01955 
        1.47667         9.21438         3.91942 
        1.49229         9.10897         3.82298 
        1.50793          8.9079         3.72968 
        1.52367         8.79245         3.63891 
        1.53953         8.65141         3.55056 
        1.55526         8.52392         3.46585 
        1.57092         8.45174         3.38427 
        1.58662         8.27639         3.30512 
        1.60235         8.16951         3.22836 
        1.61809         8.04097           3.154 
        1.63369         7.90833         3.08266 
        1.64941         7.81602         3.01301 
        1.66519         7.72791         2.94527 
        1.68085         7.59092         2.88011 
        1.69652         7.46583         2.81689 
        1.71228         7.37168         2.75522 
        1.72806         7.30331         2.69536 
        1.74368         7.16561         2.63787 
        1.75933         7.10688         2.58195 
        1.77505          7.0115          2.5274 
        1.79081          6.8607         2.47433 
         1.8065         6.83198         2.42301 
        1.82218         6.72153         2.37319 
        1.83797         6.67322         2.32444 
        1.85367         6.54873         2.27733 
        1.86928          6.5247         2.23181 
        1.88497         6.39177         2.18729 
        1.90073         6.30669         2.14382 
        1.91647         6.26281         2.10157 
        1.93218         6.18804         2.06055 
        1.94787         6.10885         2.02069 
        1.96363          6.0484         1.98173 
        1.97935          5.9588         1.94388 
        1.99499         5.86547         1.90723 
        2.01064         5.81796         1.87147 
         2.0264         5.74233         1.83641 
        2.04216         5.70114         1.80227 
        2.05781          5.6258         1.76921 
        2.07353         5.56212         1.73686 
        2.08928         5.52182         1.70525 
        2.10499         5.46045         1.67452 
        2.12065         5.39545         1.64463 
        2.13633         5.34318         1.61545 
        2.15211         5.26522         1.58679 
        2.16785         5.20857         1.55891 
        2.18349         5.16256         1.53187 
        2.19916          5.0874         1.50542 
        2.21489         5.05505          1.4795 
        2.23063         4.99334         1.45418 
         2.2463          4.9457         1.42957 
        2.26194         4.88025         1.40559 
        2.27765         4.86323         1.38203 
        2.29341          4.7892         1.35896 
        2.30914         4.75508         1.33646 
        2.32486         4.69442         1.31448 
        2.34061          4.6752         1.29296 
        2.35635         4.60708         1.27194 
        2.37203         4.58222         1.25147 
        2.38768         4.52972         1.23148 
        2.40339         4.48547         1.21186 
        2.41914         4.42286         1.19263 
        2.43483         4.42006         1.17388 
         2.4505         4.34649         1.15556 
        2.46622         4.33049         1.13757 
        2.48195           4.267         1.11997 
        2.49759         4.24985         1.10283 
        2.51328         4.20292           1.086 
        2.52906         4.18866         1.06942 
        2.54479         4.12399         1.05325 
        2.56049          4.1034         1.03745 
        2.57618           4.045         1.02198 
        2.59189          4.0354          1.0068 
        2.60758          3.9926        0.991962 
        2.62325         3.95454        0.977437 
        2.63898         3.90345        0.963152 
        2.65468         3.87833        0.949183 
        2.67044         3.84508        0.935432 
        2.68618         3.82274        0.921985 
        2.70184         3.77458        0.908856 
        2.71755         3.75699         0.89595 
        2.73329         3.72404        0.883275 
        2.74897         3.71078        0.870887 
        2.76462         3.66568        0.858764 
        2.78034         3.62666        0.846822 
        2.79607         3.59457        0.835094 
        2.81179         3.57857        0.823602 
        2.82749          3.5324         0.81234 
        2.84321         3.51395        0.801275 
        2.85893         3.49266         0.79042 
        2.87462          3.4649        0.779785 
        2.89033         3.43506        0.769336 
        2.90605         3.40726        0.759069 
        2.92176         3.36996        0.748995 
        2.93747         3.35038        0.739109 
        2.95318         3.32317        0.729399 
        2.96891         3.30895         0.71986 
        2.98456          3.2738        0.710533 
        3.00023         3.24569        0.701358 
        3.01596         3.22692        0.692317 
        3.03164         3.20021        0.683461 
        3.04738         3.17627        0.674734 
         3.0631         3.15221        0.666162 
        3.07883         3.13577        0.657739 
        3.09456         3.10494        0.649463 
        3.11026         3.08309        0.641342 
        3.12596           3.058        0.633361 
        3.14163         3.02885        0.625534 
        3.15734         3.01316        0.617821 
        3.17308         2.99466         0.61022 
        3.18879         2.97669        0.602767 
        3.20447         2.96104         0.59545 
         3.2202         2.92961        0.588231 
         3.2359         2.91819        0.581145 
        3.25157         2.89522        0.574193 
        3.26729         2.86105        0.567333 
        3.28304         2.85838        0.560573 
        3.29877         2.83499        0.553931 
        3.31446          2.8086        0.547411 
        3.33014         2.79713        0.541002 
        3.34585         2.77752        0.534685 
        3.36158         2.76203         0.52846 
        3.37727         2.73086        0.522354 
        3.39294          2.7216         0.51635 
        3.40867         2.69223        0.510418 
        3.42439         2.68545        0.504583 
        3.44008         2.66364        0.498851 
        3.45578         2.65256        0.493203 
        3.47153          2.6317        0.487631 
        3.48724         2.61655        0.482154 
        3.50292         2.60497        0.476774 
        3.51859         2.58051        0.471479 
        3.53431         2.56331        0.466247 
        3.55007         2.55095        0.461083 
        3.56577          2.5286        0.456017 
        3.58146          2.5203        0.451029 
        3.59719          2.5063        0.446104 
        3.61292         2.48782        0.441255 
        3.62859         2.46582        0.436496 
        3.64429         2.45098        0.431798 
        3.66003         2.44271        0.427154 
        3.67578         2.42173        0.422581 
        3.69146         2.40656        0.418092 
        3.70712         2.38773        0.413676 
        3.72284         2.37706        0.409308 
        3.73853         2.36156         0.40501 
        3.75422         2.34596        0.400772 
        3.76993          2.3309        0.396592 
        3.78564         2.31688        0.392473 
        3.80137         2.30191        0.388405 
        3.81707         2.28476        0.384404 
        3.83279         2.27235        0.380456 
        3.84853         2.26828        0.376556 
        3.86424         2.24485         0.37272 
        3.87992         2.23766        0.368942 
        3.89561         2.21593        0.365216 
        3.91134         2.21299        0.361535 
        3.92704         2.19337        0.357908 
        3.94273         2.18317        0.354334 
        3.95845         2.16739        0.350803 
        3.97418         2.15513        0.347319 
        3.98988         2.13657        0.343888 
        4.00554         2.11906        0.340512 
        4.02125         2.11806        0.337171 
        4.03698         2.09774         0.33387 
        4.05268         2.08747        0.330621 
        4.06839         2.07437        0.327413 
         4.0841         2.06041        0.324248 
        4.09983         2.04615        0.321121 
        4.11555         2.03482        0.318036 
        4.13124         2.02664           0.315 
        4.14693         2.00725        0.312001 
        4.16266         1.99643        0.309035 
        4.17839         1.98274        0.306108 
        4.19408         1.96982        0.303226 
        4.20977         1.95985         0.30038 
        4.22551         1.94505        0.297564 
        4.24123         1.93538        0.294786 
        4.25691         1.92133        0.292052 
        4.27259         1.90972        0.289352 
        4.28831         1.89934         0.28668 
        4.30404         1.88899        0.284039 
        4.31974         1.87606        0.281438 
        4.33543         1.86841         0.27887 
        4.35116         1.85873        0.276328 
        4.36688         1.84293        0.273819 
        4.38255         1.83011        0.271351 
        4.39825         1.82061        0.268907 
        4.41398         1.80947        0.266489 
         4.4297         1.80427        0.264103 
        4.44541         1.79158        0.261746 
        4.46111         1.78002        0.259421 
        4.47683         1.77129        0.257121 
        4.49251          1.7611        0.254854 
        4.50819          1.7546        0.252616 
         4.5239         1.74578        0.250401 
        4.53962         1.73636        0.248209 
        4.55535         1.72552        0.246043 
        4.57106         1.71843        0.243906 
        4.58678         1.70719        0.241793 
         4.6025         1.69837        0.239706 
        4.61821         1.68712        0.237643 
        4.63391         1.67863        0.235607 
         4.6496         1.67461        0.233596 
        4.66532         1.66506        0.231605 
        4.68103         1.65851        0.229638 
        4.69673         1.64803        0.227696 
        4.71241         1.63894        0.225778 
        4.72811         1.63322        0.223879 
        4.74384          1.6229           0.222 
        4.75955         1.61585        0.220145 
        4.77525         1.60519        0.218312 
        4.79096          1.6005        0.216498 
        4.80669         1.58893        0.214704 
         4.8224          1.5869        0.212932 
        4.83809         1.57803        0.211182 
        4.85379         1.56977         0.20945 
         4.8695         1.56272        0.207736 
        4.88521         1.55625        0.206043 
        4.90093         1.54613        0.204368 
        4.91663         1.54147        0.202713 
        4.93234         1.53536        0.201074 
        4.94807         1.52355        0.199453 
        4.96377         1.51797        0.197853 
        4.97943         1.51387        0.196273 
        4.99514         1.50551        0.194707 
        5.01086         1.50013        0.193156 
        5.02654         1.49284        0.191627 
        5.04227         1.48761        0.190109 
          5.058         1.48006        0.188607 
        5.07371         1.47499        0.187124 
        5.08942         1.46572        0.185657 
        5.10513         1.45877        0.184206 
        5.12084         1.45476        0.182769 
        5.13656         1.44818        0.181348 
        5.15225         1.44284        0.179945 
        5.16796         1.43589        0.178554 
        5.18369         1.43173        0.177176 
         5.1994         1.42459        0.175816 
        5.21509         1.41788        0.174471 
        5.23079         1.41477        0.173139 
        5.24649         1.41024        0.171821 
        5.26217         1.39876        0.170518 
        5.27788           1.394        0.169227 
        5.29359         1.39468        0.167949 
        5.30933         1.38535        0.166682 
        5.32504         1.37938         0.16543 
        5.34073         1.37638        0.164193 
        5.35646         1.37106        0.162966 
        5.37218         1.36349        0.161751 
        5.38789         1.35787         0.16055 
        5.40357         1.35121        0.159363 
        5.41929         1.34598        0.158186 
        5.43502         1.34251         0.15702 
         5.4507         1.33529        0.155869 
        5.46639         1.33192        0.154729 
        5.48212          1.3272        0.153597 
        5.49786         1.32109        0.152476 
        5.51353         1.31512        0.151371 
        5.52921         1.31049        0.150277 
        5.54495         1.30486         0.14919 
        5.56066         1.30194        0.148114 
        5.57637         1.29641         0.14705 
        5.59207          1.2929        0.145997 
        5.60778         1.28555        0.144954 
        5.62346         1.28464        0.143922 
        5.63916         1.28092          0.1429 
        5.65487         1.27305        0.141887 
         5.6706          1.2694        0.140883 
        5.68633         1.26528        0.139887 
        5.70203         1.26163        0.138904 
        5.71773         1.25592         0.13793 
        5.73344          1.2505        0.136965 
        5.74916         1.24694        0.136009 
        5.76486         1.24221        0.135062 
        5.78054         1.23917        0.134127 
        5.79626         1.23675        0.133197 
          5.812         1.23034        0.132276 
         5.8277         1.22637        0.131365 
        5.84339         1.22212        0.130464 
        5.85911         1.21897        0.129569 
        5.87484         1.21761        0.128682 
        5.89053         1.21043        0.127806 
        5.90623         1.20594        0.126938 
        5.92195         1.20355        0.126076 
        5.93767         1.19836        0.125222 
        5.95336         1.19389        0.124378 
        5.96905         1.18893        0.123542 
        5.98476           1.186        0.122712 
        6.00048         1.18147         0.12189 
        6.01617         1.17818        0.121076 
        6.03185         1.17289        0.120271 
        6.04756         1.16996        0.119471 
        6.06331         1.16804        0.118677 
        6.07903         1.16598        0.117891 
        6.09473          1.1605        0.117114 
        6.11044         1.15863        0.116342 
        6.12616         1.15216        0.115578 
        6.14186         1.14879        0.114822 
        6.15755         1.14841        0.114072 
        6.17326          1.1435        0.113328 
        6.18898         1.14123        0.112591 
        6.20467         1.13716        0.111861 
        6.22036         1.13026        0.111138 
         6.2361         1.13002         0.11042 
         6.2518         1.12521        0.109709 
        6.26748         1.12151        0.109005 
        6.28319         1.11666        0.108306 
        6.29893         1.11616        0.107613 
        6.31463         1.11063        0.106927 
        6.33033         1.10659        0.106247 
        6.34604         1.10333        0.105572 
        6.36177         1.10193        0.104903 
        6.37747          1.0987         0.10424 
