# k  (h/Mpc)    Pcb(k)  (Mpc/h)^3    Pcb_linear(k) (Mpc/h)^3   ShotnoiseSubtracted = true
      0.0200456         4016.49         4061.32 
      0.0350414         3237.34         3184.48 
      0.0492313          2511.6         2523.09 
      0.0637834         2006.45         2051.68 
      0.0800726         1521.44         1549.84 
       0.096163         1241.48         1219.05 
       0.111083         1058.47         1031.92 
       0.126058         852.613         857.824 
       0.142273         701.961         698.043 
       0.158546         605.028         594.651 
        0.17375         535.291         517.367 
       0.188953         467.848         444.778 
       0.204907         392.636         385.019 
       0.220756         358.053         340.295 
        0.23588          319.07         302.256 
         0.2514         283.963         267.823 
       0.267535         265.503         238.852 
       0.283568         234.388          214.63 
       0.299022         219.149         193.817 
       0.314451         209.834         175.725 
       0.330372         183.845         159.777 
       0.346141         169.837         145.858 
       0.361624         158.873         133.682 
       0.377134         145.407         122.913 
       0.392932         141.304         113.209 
       0.408854         131.464          104.46 
       0.424564         125.615         96.7099 
       0.440253         114.316         89.7732 
       0.455999         105.971         83.5012 
       0.471626         101.463         77.8602 
        0.48727         98.6528         72.7337 
       0.502856         91.0569         68.0881 
       0.518488         87.5353         63.8364 
       0.534347         82.7069         59.8923 
       0.550082         79.9849         56.3088 
       0.565732         77.5808         53.0365 
       0.581496         72.0761         50.0036 
       0.597222         69.3545         47.2143 
       0.612804         67.0533         44.6614 
       0.628434         65.4908          42.291 
       0.644267         62.0381         40.0658 
       0.660051         59.5417         38.0075 
       0.675724         57.6001         36.1071 
       0.691403         56.5879         34.3364 
       0.707174         54.7236         32.6756 
       0.722871         53.0051          31.132 
        0.73838         50.7238         29.7052 
       0.754018         48.2323         28.3575 
       0.769845         47.5091          27.079 
        0.78569         45.7917         25.8783 
       0.801365         44.6317         24.7623 
       0.817031          42.954         23.7131 
       0.832809         42.1961         22.7181 
       0.848511         40.8864         21.7849 
       0.864097         39.9997         20.9106 
       0.879701         39.2199         20.0836 
       0.895507         37.8033         19.2917 
       0.911279         36.7659         18.5443 
        0.92691         36.0065         17.8429 
       0.942635         35.3013          17.174 
       0.958396         34.6317         16.5381 
       0.974128         33.6883         15.9357 
       0.989692         32.5391         15.3694 
        1.00528         32.2147           14.83 
        1.02113         31.3604         14.3081 
        1.03692         30.8262         13.8134 
        1.05264         30.1705         13.3444 
        1.06832         29.6262         12.8981 
        1.08405         28.7849         12.4711 
        1.09979         28.5005         12.0632 
        1.11537         27.6136         11.6778 
        1.13105         27.1584         11.3069 
        1.14679         26.5271         10.9508 
        1.16256         26.1675         10.6094 
        1.17828         25.7663         10.2838 
        1.19395         25.3047         9.97291 
         1.2097         24.7474         9.67338 
        1.22537         24.3421         9.38765 
          1.241          23.914         9.11437 
        1.25666         23.6155         8.85132 
        1.27241         23.1879         8.59746 
        1.28819         22.3358         8.35315 
        1.30392         22.6109         8.11909 
        1.31957         22.0159         7.89507 
        1.33529         21.5826          7.6787 
        1.35108         21.4065         7.46962 
        1.36674         21.0169         7.26984 
         1.3824         20.6176         7.07757 
        1.39811         20.2158         6.89164 
        1.41389         19.9844          6.7117 
        1.42964         19.7514          6.5385 
        1.44531         19.4327         6.37229 
        1.46101         19.1658         6.21151 
        1.47667         18.9011         6.05678 
        1.49229         18.5016         5.90775 
        1.50793         18.3371         5.76357 
        1.52367         18.1188          5.6233 
        1.53953         17.8284         5.48677 
        1.55526         17.5249         5.35587 
        1.57092         17.4807         5.22979 
        1.58662         17.2335         5.10749 
        1.60235         16.9049         4.98887 
        1.61809         16.7691         4.87397 
        1.63369         16.4884         4.76371 
        1.64941         16.3276         4.65609 
        1.66519         16.0368         4.55141 
        1.68085         15.7648          4.4507 
        1.69652         15.8053         4.35302 
        1.71228         15.4638         4.25772 
        1.72806         15.2421          4.1652 
        1.74368         15.1055         4.07637 
        1.75933         14.9753         3.98996 
        1.77505         14.7575         3.90565 
        1.79081         14.5864         3.82364 
         1.8065         14.4777         3.74433 
        1.82218         14.3381         3.66735 
        1.83797         14.1861         3.59202 
        1.85367          14.053         3.51921 
        1.86928         13.8642         3.44887 
        1.88497          13.724         3.38007 
        1.90073         13.5209         3.31289 
        1.91647         13.2415         3.24761 
        1.93218         13.2409         3.18422 
        1.94787          12.994         3.12263 
        1.96363          12.954         3.06242 
        1.97935         12.8006         3.00392 
        1.99499          12.639         2.94729 
        2.01064         12.5306         2.89204 
         2.0264         12.3131         2.83785 
        2.04216          12.356         2.78509 
        2.05781         12.1969           2.734 
        2.07353         12.0427         2.68401 
        2.08928         11.8788         2.63517 
        2.10499         11.7401         2.58767 
        2.12065         11.6748         2.54149 
        2.13633         11.5428          2.4964 
        2.15211         11.4237         2.45211 
        2.16785         11.2823         2.40902 
        2.18349         11.1862         2.36724 
        2.19916         11.0622         2.32636 
        2.21489         10.9784         2.28632 
        2.23063         10.9152         2.24719 
         2.2463         10.7264         2.20915 
        2.26194         10.6514         2.17209 
        2.27765         10.5232         2.13569 
        2.29341         10.3853         2.10003 
        2.30914         10.3727         2.06526 
        2.32486         10.2508          2.0313 
        2.34061           10.18         1.99805 
        2.35635         10.0509         1.96557 
        2.37203         9.93924         1.93392 
        2.38768         9.83582         1.90304 
        2.40339         9.79612         1.87272 
        2.41914         9.67129           1.843 
        2.43483         9.61683         1.81402 
         2.4505         9.54792         1.78572 
        2.46622         9.41468         1.75792 
        2.48195         9.39911         1.73071 
        2.49759         9.22107         1.70423 
        2.51328         9.19796         1.67823 
        2.52906         9.09422         1.65261 
        2.54479         8.98878         1.62762 
        2.56049         8.93109         1.60319 
        2.57618         8.86609         1.57929 
        2.59189         8.85415         1.55584 
        2.60758         8.71657          1.5329 
        2.62325         8.64363         1.51046 
        2.63898         8.61769         1.48838 
        2.65468         8.49581          1.4668 
        2.67044         8.43468         1.44555 
        2.68618         8.33437         1.42477 
        2.70184         8.31633         1.40448 
        2.71755          8.2132         1.38453 
        2.73329         8.11194         1.36495 
        2.74897         8.07168          1.3458 
        2.76462         8.03617         1.32707 
        2.78034         7.94646         1.30862 
        2.79607         7.90567         1.29049 
        2.81179         7.82196         1.27273 
        2.82749          7.7548         1.25533 
        2.84321         7.69526         1.23823 
        2.85893         7.65589         1.22146 
        2.87462          7.5817         1.20502 
        2.89033          7.5027         1.18887 
        2.90605         7.46196         1.17301 
        2.92176         7.39308         1.15744 
        2.93747         7.33312         1.14216 
        2.95318         7.26316         1.12716 
        2.96891          7.2024         1.11242 
        2.98456         7.15545         1.09801 
        3.00023         7.11801         1.08383 
        3.01596         7.00797         1.06986 
        3.03164          6.9887         1.05617 
        3.04738         6.93512         1.04268 
         3.0631         6.87313         1.02944 
        3.07883         6.83474         1.01642 
        3.09456         6.74058         1.00363 
        3.11026         6.72125        0.991082 
        3.12596         6.65389        0.978749 
        3.14163         6.62673        0.966654 
        3.15734         6.56652        0.954735 
        3.17308         6.53413        0.942988 
        3.18879         6.47509        0.931472 
        3.20447         6.41804        0.920164 
         3.2202         6.37312        0.909009 
         3.2359         6.31873        0.898059 
        3.25157         6.27535        0.887316 
        3.26729           6.236        0.876715 
        3.28304         6.18709        0.866267 
        3.29877         6.14847        0.856003 
        3.31446         6.11776        0.845928 
        3.33014         6.04607        0.836024 
        3.34585         6.00951        0.826263 
        3.36158         5.96156        0.816643 
        3.37727         5.91978        0.807207 
        3.39294         5.88076        0.797929 
        3.40867          5.8475        0.788763 
        3.42439         5.77391        0.779746 
        3.44008          5.7376        0.770887 
        3.45578         5.70152         0.76216 
        3.47153         5.65458        0.753548 
        3.48724          5.6194        0.745085 
        3.50292         5.57991        0.736771 
        3.51859         5.54369        0.728588 
        3.53431         5.50112        0.720504 
        3.55007         5.46786        0.712523 
        3.56577         5.40633        0.704694 
        3.58146         5.37581        0.696987 
        3.59719          5.3485        0.689376 
        3.61292         5.31114        0.681882 
        3.62859         5.27066        0.674528 
        3.64429         5.23466        0.667268 
        3.66003         5.20262        0.660093 
        3.67578         5.17059        0.653025 
        3.69146          5.1268        0.646088 
        3.70712         5.09923        0.639264 
        3.72284         5.06479        0.632514 
        3.73853         5.01845        0.625873 
        3.75422         4.97733        0.619324 
        3.76993         4.96516        0.612864 
        3.78564         4.92489        0.606498 
        3.80137         4.88234        0.600213 
        3.81707         4.84035        0.594029 
        3.83279         4.82009        0.587928 
        3.84853         4.77355        0.581902 
        3.86424         4.74345        0.575973 
        3.87992         4.72689        0.570135 
        3.89561         4.69134        0.564378 
        3.91134         4.65767        0.558689 
        3.92704         4.61379        0.553084 
        3.94273         4.59607        0.547562 
        3.95845         4.55578        0.542105 
        3.97418         4.52749        0.536722 
        3.98988         4.49595        0.531419 
        4.00554         4.47273        0.526201 
        4.02125         4.42918        0.521039 
        4.03698         4.40448        0.515939 
        4.05268         4.37021        0.510918 
        4.06839         4.34002         0.50596 
         4.0841         4.30592        0.501069 
        4.09983         4.28439        0.496236 
        4.11555         4.24348        0.491469 
        4.13124         4.22935        0.486778 
        4.14693         4.21332        0.482144 
        4.16266         4.16527        0.477559 
        4.17839         4.14297        0.473037 
        4.19408          4.1137        0.468583 
        4.20977         4.08069        0.464185 
        4.22551         4.05456        0.459833 
        4.24123         4.01919        0.455541 
        4.25691         3.99534        0.451316 
        4.27259         3.97056        0.447143 
        4.28831         3.94072        0.443014 
        4.30404         3.91839        0.438933 
        4.31974         3.88474        0.434913 
        4.33543         3.86169        0.430945 
        4.35116         3.84092        0.427017 
        4.36688         3.82145         0.42314 
        4.38255         3.80368        0.419325 
        4.39825         3.77291        0.415549 
        4.41398         3.74761        0.411812 
         4.4297          3.7265        0.408125 
        4.44541         3.70024        0.404483 
        4.46111          3.6655        0.400889 
        4.47683         3.64184        0.397336 
        4.49251         3.62379        0.393833 
        4.50819         3.60802        0.390373 
         4.5239         3.56946         0.38695 
        4.53962         3.54393        0.383564 
        4.55535         3.53313        0.380217 
        4.57106         3.50497        0.376914 
        4.58678         3.47904         0.37365 
         4.6025         3.46824        0.370423 
        4.61821         3.43714        0.367235 
        4.63391          3.4151        0.364089 
         4.6496         3.39682        0.360981 
        4.66532         3.37624        0.357905 
        4.68103         3.35324        0.354866 
        4.69673         3.33623        0.351864 
        4.71241         3.31348        0.348901 
        4.72811         3.29218        0.345967 
        4.74384         3.28228        0.343062 
        4.75955         3.24857        0.340196 
        4.77525          3.2289        0.337364 
        4.79096         3.21316         0.33456 
        4.80669          3.1899        0.331787 
         4.8224          3.1737        0.329049 
        4.83809         3.15957        0.326344 
        4.85379         3.13132        0.323669 
         4.8695         3.11433        0.321021 
        4.88521         3.09701        0.318403 
        4.90093         3.07918        0.315815 
        4.91663         3.06093        0.313257 
        4.93234         3.04056        0.310726 
        4.94807         3.02821         0.30822 
        4.96377         3.00471        0.305747 
        4.97943         2.99429        0.303306 
        4.99514         2.97166        0.300885 
        5.01086         2.94703        0.298489 
        5.02654         2.93278        0.296126 
        5.04227         2.91956         0.29378 
          5.058         2.90929        0.291459 
        5.07371          2.8852        0.289168 
        5.08942         2.85767        0.286901 
        5.10513         2.85175        0.284658 
        5.12084         2.83075        0.282438 
        5.13656         2.81716        0.280242 
        5.15225         2.80164        0.278073 
        5.16796         2.78352        0.275924 
        5.18369         2.76295        0.273795 
         5.1994          2.7483        0.271693 
        5.21509         2.73739        0.269615 
        5.23079         2.72264        0.267555 
        5.24649         2.70221        0.265519 
        5.26217         2.68768        0.263506 
        5.27788         2.67626        0.261511 
        5.29359         2.66161        0.259536 
        5.30933         2.65136        0.257578 
        5.32504         2.63372        0.255644 
        5.34073         2.60934        0.253732 
        5.35646         2.60085        0.251835 
        5.37218         2.58787        0.249958 
        5.38789         2.57317        0.248103 
        5.40357         2.55768        0.246268 
        5.41929         2.54839        0.244449 
        5.43502         2.53333        0.242647 
         5.4507         2.50864        0.240868 
        5.46639          2.4973        0.239106 
        5.48212         2.48855        0.237358 
        5.49786         2.47429        0.235625 
        5.51353          2.4599        0.233918 
        5.52921          2.4459        0.232227 
        5.54495         2.43308        0.230547 
        5.56066         2.41577        0.228885 
        5.57637         2.40798         0.22724 
        5.59207         2.39366        0.225613 
        5.60778         2.38548        0.224001 
        5.62346         2.36264        0.222407 
        5.63916         2.35693        0.220827 
        5.65487         2.33886        0.219262 
         5.6706         2.33215        0.217709 
        5.68633         2.32082        0.216172 
        5.70203         2.30449        0.214652 
        5.71773         2.29571        0.213147 
        5.73344         2.27718        0.211656 
        5.74916         2.26997        0.210178 
        5.76486         2.25796        0.208716 
        5.78054         2.24257         0.20727 
        5.79626         2.23378        0.205833 
          5.812         2.21676        0.204409 
         5.8277         2.20682        0.203002 
        5.84339         2.20038        0.201609 
        5.85911         2.18836        0.200226 
        5.87484         2.17449        0.198856 
        5.89053         2.16609        0.197502 
        5.90623         2.15401         0.19616 
        5.92195         2.14102        0.194828 
        5.93767         2.13298        0.193509 
        5.95336         2.12146        0.192204 
        5.96905         2.10932        0.190912 
        5.98476           2.098         0.18963 
        6.00048         2.08791        0.188359 
        6.01617         2.07786        0.187102 
        6.03185          2.0656        0.185857 
        6.04756         2.05914        0.184621 
        6.06331         2.04818        0.183394 
        6.07903          2.0363         0.18218 
        6.09473         2.02375        0.180979 
        6.11044         2.01905        0.179787 
        6.12616         2.00811        0.178606 
        6.14186         2.00091        0.177437 
        6.15755         1.98678        0.176278 
        6.17326         1.97677        0.175129 
        6.18898         1.96959        0.173989 
        6.20467         1.95612        0.172862 
        6.22036         1.94914        0.171745 
         6.2361         1.93867        0.170634 
         6.2518         1.93257        0.169536 
        6.26748          1.9216        0.168449 
        6.28319         1.91248        0.167369 
        6.29893          1.9035        0.166297 
        6.31463         1.89345        0.165237 
        6.33033          1.8829        0.164186 
        6.34604         1.87414        0.163143 
        6.36177         1.86811        0.162109 
        6.37747         1.85996        0.161085 
