# k  (h/Mpc)    Pcb(k)  (Mpc/h)^3    Pcb_linear(k) (Mpc/h)^3   ShotnoiseSubtracted = true
      0.0200456         1471.87          1490.8 
      0.0350414            1159         1168.94 
      0.0492313         925.336         926.158 
      0.0637834         759.794         753.113 
      0.0800726         577.675         568.905 
       0.096163         444.114          447.48 
       0.111083          372.09         378.791 
       0.126058         317.156         314.883 
       0.142273         261.219         256.232 
       0.158546         221.897          218.28 
        0.17375         188.852         189.911 
       0.188953         166.719         163.266 
       0.204907         149.807          141.33 
       0.220756         129.333         124.913 
        0.23588         114.666          110.95 
         0.2514         100.866         98.3103 
       0.267535         91.3748         87.6761 
       0.283568         82.7033         78.7846 
       0.299022         75.5281         71.1447 
       0.314451         67.2845         64.5039 
       0.330372         62.1489         58.6498 
       0.346141         56.6694         53.5404 
       0.361624         52.5836         49.0709 
       0.377134         49.2218          45.118 
       0.392932         43.6702          41.556 
       0.408854         41.9435         38.3443 
       0.424564         39.2391         35.4995 
       0.440253         36.1689         32.9533 
       0.455999         34.1271          30.651 
       0.471626         32.0269         28.5803 
        0.48727         30.2303         26.6985 
       0.502856         28.2527         24.9932 
       0.518488         27.0011         23.4326 
       0.534347         25.8001         21.9848 
       0.550082          23.609         20.6694 
       0.565732          21.918         19.4682 
       0.581496          21.488         18.3549 
       0.597222         20.6689         17.3311 
       0.612804         19.2522          16.394 
       0.628434         18.5612         15.5239 
       0.644267         17.9151         14.7071 
       0.660051          16.918         13.9515 
       0.675724         16.0655         13.2539 
       0.691403         15.5279         12.6039 
       0.707174         14.8555         11.9943 
       0.722871         14.2505         11.4277 
        0.73838         13.7298          10.904 
       0.754018         13.2405         10.4093 
       0.769845         12.6519         9.93993 
        0.78569         12.2639         9.49919 
       0.801365         11.7544         9.08956 
       0.817031         11.4027         8.70442 
       0.832809         11.0959         8.33919 
       0.848511          10.439         7.99661 
       0.864097         10.1508         7.67569 
       0.879701         9.83503         7.37212 
       0.895507         9.43405         7.08144 
       0.911279         9.28268          6.8071 
        0.92691         8.95818         6.54962 
       0.942635         8.57681         6.30408 
       0.958396           8.321         6.07067 
       0.974128          8.1037         5.84956 
       0.989692         7.99763         5.64169 
        1.00528         7.67587         5.44367 
        1.02113         7.38452          5.2521 
        1.03692         7.24384          5.0705 
        1.05264          7.0239         4.89836 
        1.06832         6.86799         4.73453 
        1.08405         6.60083         4.57779 
        1.09979         6.45562         4.42808 
        1.11537         6.33292         4.28659 
        1.13105         6.15509         4.15046 
        1.14679         6.01384         4.01974 
        1.16256          5.8403         3.89442 
        1.17828         5.74016         3.77488 
        1.19395         5.57178         3.66078 
         1.2097          5.3864         3.55083 
        1.22537         5.26403         3.44595 
          1.241         5.17454         3.34563 
        1.25666          5.1246         3.24907 
        1.27241         4.93881         3.15589 
        1.28819         4.82275         3.06621 
        1.30392         4.74626         2.98029 
        1.31957         4.64184         2.89806 
        1.33529          4.5369         2.81864 
        1.35108         4.42718         2.74189 
        1.36674         4.37095         2.66855 
         1.3824          4.2091         2.59798 
        1.39811         4.15266         2.52973 
        1.41389         4.08566         2.46368 
        1.42964         4.00531          2.4001 
        1.44531          3.9286         2.33909 
        1.46101         3.85332         2.28007 
        1.47667         3.74785         2.22327 
        1.49229         3.71871         2.16857 
        1.50793         3.61412         2.11565 
        1.52367         3.59084         2.06416 
        1.53953         3.48684         2.01404 
        1.55526         3.41762         1.96599 
        1.57092         3.38023         1.91971 
        1.58662         3.30333         1.87482 
        1.60235         3.25135         1.83127 
        1.61809         3.19349          1.7891 
        1.63369         3.14349         1.74863 
        1.64941          3.0866         1.70912 
        1.66519         3.04279          1.6707 
        1.68085         2.96951         1.63373 
        1.69652         2.92605         1.59787 
        1.71228         2.88737         1.56289 
        1.72806         2.82762         1.52893 
        1.74368         2.78546         1.49632 
        1.75933         2.74169          1.4646 
        1.77505         2.70325         1.43366 
        1.79081         2.65383         1.40355 
         1.8065         2.61558         1.37444 
        1.82218          2.5847         1.34618 
        1.83797         2.55493         1.31853 
        1.85367          2.5155         1.29181 
        1.86928         2.47605         1.26598 
        1.88497         2.42723         1.24073 
        1.90073         2.38951         1.21607 
        1.91647         2.35682         1.19211 
        1.93218         2.34027         1.16884 
        1.94787         2.29796         1.14623 
        1.96363         2.26106         1.12413 
        1.97935         2.22577         1.10266 
        1.99499         2.18234         1.08187 
        2.01064         2.16567         1.06159 
         2.0264         2.14964          1.0417 
        2.04216         2.11203         1.02233 
        2.05781         2.08022         1.00358 
        2.07353         2.05909        0.985226 
        2.08928          2.0294        0.967297 
        2.10499         2.00183        0.949862 
        2.12065         1.98652         0.93291 
        2.13633         1.95098        0.916358 
        2.15211         1.92288        0.900101 
        2.16785         1.90191        0.884285 
        2.18349         1.88325        0.868948 
        2.19916         1.84583        0.853943 
        2.21489         1.82634        0.839243 
        2.23063         1.80263         0.82488 
         2.2463         1.78854        0.810918 
        2.26194         1.75734        0.797314 
        2.27765         1.74017        0.783953 
        2.29341         1.72329        0.770864 
        2.30914         1.70519        0.758101 
        2.32486          1.6863        0.745634 
        2.34061         1.66141        0.733427 
        2.35635          1.6349        0.721505 
        2.37203         1.62857        0.709889 
        2.38768         1.60993        0.698554 
        2.40339         1.59462        0.687425 
        2.41914           1.573        0.676513 
        2.43483         1.55485        0.665876 
         2.4505         1.53298        0.655486 
        2.46622         1.52068        0.645283 
        2.48195         1.50828        0.635296 
        2.49759         1.48892        0.625574 
        2.51328         1.46805        0.616031 
        2.52906         1.45756        0.606626 
        2.54479         1.44101        0.597453 
        2.56049         1.42466        0.588487 
        2.57618         1.41319        0.579714 
        2.59189         1.40176        0.571106 
        2.60758         1.38014        0.562687 
        2.62325         1.36896        0.554447 
        2.63898         1.35513        0.546344 
        2.65468         1.34283        0.538421 
        2.67044         1.33055         0.53062 
        2.68618         1.31059        0.522992 
        2.70184         1.29805        0.515545 
        2.71755          1.2869        0.508224 
        2.73329         1.27517        0.501034 
        2.74897         1.26316        0.494007 
        2.76462         1.24932         0.48713 
        2.78034         1.24343        0.480356 
        2.79607         1.22744        0.473704 
        2.81179          1.2132        0.467185 
        2.82749         1.20572        0.460797 
        2.84321         1.19693         0.45452 
        2.85893         1.18003        0.448363 
        2.87462          1.1737         0.44233 
        2.89033         1.15582        0.436403 
        2.90605         1.14827        0.430579 
        2.92176          1.1393        0.424864 
        2.93747         1.13057        0.419257 
        2.95318         1.12091        0.413749 
        2.96891         1.10837        0.408338 
        2.98456         1.10383        0.403047 
        3.00023         1.08987        0.397843 
        3.01596         1.08481        0.392714 
        3.03164         1.07536         0.38769 
        3.04738         1.05799         0.38274 
         3.0631         1.05336        0.377878 
        3.07883         1.04508          0.3731 
        3.09456         1.03846        0.368405 
        3.11026          1.0271        0.363799 
        3.12596         1.01962        0.359271 
        3.14163         1.00952        0.354832 
        3.15734         1.00538        0.350457 
        3.17308        0.994171        0.346145 
        3.18879        0.986316        0.341917 
        3.20447        0.976186        0.337767 
         3.2202        0.970543        0.333672 
         3.2359         0.96461        0.329653 
        3.25157        0.954563        0.325709 
        3.26729        0.949685        0.321818 
        3.28304        0.939676        0.317983 
        3.29877        0.931429        0.314215 
        3.31446        0.926613        0.310517 
        3.33014        0.921684        0.306881 
        3.34585        0.912022        0.303298 
        3.36158        0.902492        0.299767 
        3.37727        0.900833        0.296303 
        3.39294        0.892644        0.292897 
        3.40867        0.887144        0.289533 
        3.42439        0.878061        0.286223 
        3.44008         0.87365        0.282971 
        3.45578        0.867885        0.279768 
        3.47153        0.859215        0.276607 
        3.48724        0.855297          0.2735 
        3.50292        0.851386        0.270448 
        3.51859        0.843928        0.267444 
        3.53431         0.83771        0.264477 
        3.55007        0.834878        0.261547 
        3.56577        0.826406        0.258674 
        3.58146        0.819764        0.255844 
        3.59719        0.817467        0.253051 
        3.61292        0.811766          0.2503 
        3.62859         0.80215          0.2476 
        3.64429        0.800446        0.244936 
        3.66003        0.793638        0.242302 
        3.67578         0.78822        0.239707 
        3.69146        0.784709        0.237161 
        3.70712        0.776916        0.234656 
        3.72284        0.774786        0.232178 
        3.73853        0.767094         0.22974 
        3.75422        0.762218        0.227337 
        3.76993        0.761028        0.224965 
        3.78564        0.754897        0.222629 
        3.80137        0.748025        0.220321 
        3.81707        0.746406        0.218052 
        3.83279        0.739361        0.215812 
        3.84853        0.734138          0.2136 
        3.86424        0.731675        0.211424 
        3.87992        0.726772        0.209281 
        3.89561        0.722194        0.207168 
        3.91134        0.717143        0.205079 
        3.92704          0.7121        0.203022 
        3.94273        0.709133        0.200995 
        3.95845        0.704623        0.198992 
        3.97418        0.699133        0.197016 
        3.98988        0.695312        0.195069 
        4.00554        0.691766        0.193154 
        4.02125        0.685816        0.191259 
        4.03698        0.677995        0.189387 
        4.05268        0.673579        0.187544 
        4.06839        0.668158        0.185724 
         4.0841        0.664426        0.183929 
        4.09983        0.660411        0.182155 
        4.11555        0.653861        0.180405 
        4.13124        0.648733        0.178683 
        4.14693         0.64378        0.176981 
        4.16266        0.640022        0.175299 
        4.17839         0.63609        0.173639 
        4.19408        0.631407        0.172004 
        4.20977        0.626982         0.17039 
        4.22551          0.6228        0.168792 
        4.24123        0.618387        0.167217 
        4.25691        0.615101        0.165666 
        4.27259        0.610668        0.164134 
        4.28831        0.606877        0.162618 
        4.30404         0.60285         0.16112 
        4.31974        0.599075        0.159644 
        4.33543         0.59619        0.158188 
        4.35116         0.59323        0.156746 
        4.36688        0.588511        0.155323 
        4.38255        0.586473        0.153923 
        4.39825         0.58304        0.152536 
        4.41398        0.578812        0.151165 
         4.4297        0.576119        0.149811 
        4.44541        0.573126        0.148475 
        4.46111        0.571688        0.147155 
        4.47683        0.568102        0.145851 
        4.49251         0.56477        0.144565 
        4.50819        0.561802        0.143295 
         4.5239        0.561386        0.142039 
        4.53962        0.557823        0.140796 
        4.55535         0.55667        0.139567 
        4.57106        0.552738        0.138355 
        4.58678        0.550282        0.137156 
         4.6025        0.547762        0.135972 
        4.61821        0.546471        0.134802 
        4.63391        0.543081        0.133647 
         4.6496        0.540598        0.132506 
        4.66532        0.540044        0.131377 
        4.68103        0.537248        0.130261 
        4.69673        0.536156         0.12916 
        4.71241        0.532401        0.128072 
        4.72811        0.532625        0.126995 
        4.74384        0.529711        0.125929 
        4.75955        0.528828        0.124876 
        4.77525        0.526497        0.123837 
        4.79096        0.526387        0.122808 
        4.80669        0.523204         0.12179 
         4.8224        0.523807        0.120785 
        4.83809        0.520579        0.119792 
        4.85379        0.520324         0.11881 
         4.8695        0.519369        0.117838 
        4.88521         0.51675        0.116877 
        4.90093        0.517008        0.115927 
        4.91663        0.514305        0.114988 
        4.93234        0.513264        0.114059 
        4.94807         0.51367        0.113139 
        4.96377        0.512395        0.112231 
        4.97943        0.511483        0.111335 
        4.99514        0.509351        0.110447 
        5.01086        0.510411        0.109567 
        5.02654        0.508947        0.108699 
        5.04227        0.507857        0.107839 
          5.058        0.507018        0.106987 
        5.07371        0.506226        0.106146 
        5.08942        0.506353        0.105313 
        5.10513        0.504688         0.10449 
        5.12084        0.504791        0.103675 
        5.13656         0.50518        0.102869 
        5.15225        0.504558        0.102073 
        5.16796        0.503459        0.101284 
        5.18369        0.504271        0.100503 
         5.1994        0.504899        0.099731 
        5.21509        0.502976        0.098968 
        5.23079        0.503033       0.0982122 
        5.24649        0.503336       0.0974648 
        5.26217        0.502186       0.0967257 
        5.27788         0.50332       0.0959933 
        5.29359        0.502664       0.0952683 
        5.30933        0.502416       0.0945497 
        5.32504        0.502307       0.0938398 
        5.34073        0.502291       0.0931379 
        5.35646        0.503018       0.0924418 
        5.37218        0.503735       0.0917526 
        5.38789         0.50274       0.0910716 
        5.40357        0.503754       0.0903983 
        5.41929        0.504351       0.0897303 
        5.43502        0.504447       0.0890689 
         5.4507        0.504015       0.0884158 
        5.46639        0.505113       0.0877692 
        5.48212        0.503985       0.0871275 
        5.49786        0.504638       0.0864914 
        5.51353        0.505584       0.0858649 
        5.52921        0.505125       0.0852439 
        5.54495        0.505719       0.0846273 
        5.56066        0.507133       0.0840174 
        5.57637        0.506239       0.0834136 
        5.59207        0.507837       0.0828163 
        5.60778        0.507644       0.0822245 
        5.62346        0.507819       0.0816394 
        5.63916        0.508485       0.0810595 
        5.65487        0.509581       0.0804848 
         5.6706        0.510142       0.0799151 
        5.68633        0.510732       0.0793506 
        5.70203        0.512146       0.0787928 
        5.71773        0.511875       0.0782404 
        5.73344        0.511475       0.0776931 
        5.74916        0.513049       0.0771504 
        5.76486        0.513441       0.0766137 
        5.78054        0.514129       0.0760829 
        5.79626        0.514382       0.0755556 
          5.812        0.516721       0.0750328 
         5.8277        0.516373       0.0745165 
        5.84339        0.517724       0.0740051 
        5.85911         0.51761       0.0734974 
        5.87484        0.517905       0.0729946 
        5.89053        0.519142       0.0724975 
        5.90623        0.519475       0.0720048 
        5.92195        0.520157       0.0715158 
        5.93767        0.521309       0.0710317 
        5.95336        0.520462       0.0705528 
        5.96905        0.521447       0.0700785 
        5.98476        0.523376       0.0696079 
        6.00048        0.524584       0.0691414 
        6.01617        0.525088       0.0686799 
        6.03185        0.524631       0.0682231 
        6.04756        0.526708       0.0677694 
        6.06331         0.52759       0.0673188 
        6.07903        0.529016       0.0668733 
        6.09473        0.529799       0.0664322 
        6.11044        0.530428       0.0659948 
        6.12616        0.530699       0.0655613 
        6.14186        0.529865       0.0651321 
        6.15755        0.531776       0.0647068 
        6.17326        0.532496        0.064285 
        6.18898        0.532963       0.0638667 
        6.20467        0.535435       0.0634529 
        6.22036        0.533914       0.0630428 
         6.2361         0.53523       0.0626352 
         6.2518        0.534895       0.0622318 
        6.26748        0.536591       0.0618329 
        6.28319        0.538693       0.0614364 
        6.29893        0.538945       0.0610431 
        6.31463        0.539341       0.0606538 
        6.33033        0.538361       0.0602681 
        6.34604        0.540042       0.0598854 
        6.36177        0.540089       0.0595057 
        6.37747        0.542605         0.05913 
