# k  (h/Mpc)    Pcb(k)  (Mpc/h)^3    Pcb_linear(k) (Mpc/h)^3   ShotnoiseSubtracted = true
      0.0200456          8978.1         9088.74 
      0.0350414         7279.39         7126.49 
      0.0492313         5577.55         5646.38 
      0.0637834          4430.6         4591.41 
      0.0800726         3354.81         3468.37 
       0.096163         2785.99         2728.09 
       0.111083         2381.18         2309.32 
       0.126058         1900.37         1919.71 
       0.142273         1587.87         1562.14 
       0.158546         1369.16         1330.76 
        0.17375         1219.37          1157.8 
       0.188953         1092.22         995.359 
       0.204907         923.398         861.625 
       0.220756         841.408          761.54 
        0.23588         753.752         676.413 
         0.2514         671.569         599.355 
       0.267535         645.598         534.523 
       0.283568          566.81         480.315 
       0.299022         540.264         433.738 
       0.314451         539.504         393.252 
       0.330372         464.303         357.562 
       0.346141         431.528         326.413 
       0.361624         411.431         299.164 
       0.377134         382.684         275.065 
       0.392932         372.477         253.349 
       0.408854         352.959         233.768 
       0.424564         340.087         216.425 
       0.440253         307.246         200.902 
       0.455999         293.658         186.866 
       0.471626         291.349         174.242 
        0.48727         278.025         162.769 
       0.502856         254.538         152.373 
       0.518488          254.57         142.858 
       0.534347         236.792         134.032 
       0.550082         231.384         126.012 
       0.565732         228.929         118.689 
       0.581496         214.301         111.902 
       0.597222         209.537          105.66 
       0.612804          203.65         99.9468 
       0.628434         196.201         94.6423 
       0.644267         187.244         89.6625 
       0.660051         182.701         85.0562 
       0.675724         181.546         80.8033 
       0.691403         175.984         76.8407 
       0.707174         170.422          73.124 
       0.722871         167.652         69.6697 
        0.73838         165.699         66.4767 
       0.754018         155.544         63.4607 
       0.769845         155.156         60.5995 
        0.78569         151.177         57.9125 
       0.801365         147.212         55.4151 
       0.817031         142.709         53.0671 
       0.832809         140.328         50.8404 
       0.848511         137.048         48.7519 
       0.864097          134.43         46.7953 
       0.879701         132.744         44.9446 
       0.895507         128.489         43.1725 
       0.911279         125.899         41.4999 
        0.92691          122.94         39.9302 
       0.942635         120.824         38.4333 
       0.958396         119.115         37.0102 
       0.974128         116.476         35.6622 
       0.989692         114.007         34.3949 
        1.00528         112.302         33.1877 
        1.02113         109.412         32.0197 
        1.03692         108.988         30.9126 
        1.05264         107.342         29.8632 
        1.06832         103.849         28.8644 
        1.08405         103.174         27.9088 
        1.09979         102.225         26.9961 
        1.11537         99.3699         26.1335 
        1.13105          98.289         25.3035 
        1.14679          96.318         24.5066 
        1.16256         94.4212         23.7426 
        1.17828         93.4557         23.0138 
        1.19395         90.8146         22.3182 
         1.2097         90.9674         21.6479 
        1.22537         88.6385         21.0084 
          1.241         88.2777         20.3969 
        1.25666          85.219         19.8082 
        1.27241         84.7015         19.2401 
        1.28819         83.9448         18.6934 
        1.30392         82.2517         18.1696 
        1.31957         81.5454         17.6682 
        1.33529         80.3209          17.184 
        1.35108         79.6411         16.7161 
        1.36674         78.4093          16.269 
         1.3824         77.4508         15.8387 
        1.39811         75.6249         15.4227 
        1.41389         74.6112           15.02 
        1.42964          73.805         14.6324 
        1.44531         72.8596         14.2604 
        1.46101         72.0585         13.9006 
        1.47667         71.1384         13.5543 
        1.49229          70.238         13.2208 
        1.50793         69.3218         12.8982 
        1.52367         68.6903         12.5843 
        1.53953         67.4605         12.2787 
        1.55526         66.5542         11.9858 
        1.57092         66.1737         11.7036 
        1.58662         65.0913         11.4299 
        1.60235         64.2294         11.1645 
        1.61809         63.2476         10.9073 
        1.63369         62.4712         10.6606 
        1.64941         62.0707         10.4198 
        1.66519         60.6906         10.1855 
        1.68085         60.3777         9.96014 
        1.69652         58.9527         9.74153 
        1.71228         58.8614         9.52826 
        1.72806         57.9738         9.32123 
        1.74368         57.2657         9.12243 
        1.75933         56.7031         8.92905 
        1.77505         56.2493         8.74038 
        1.79081         55.1945         8.55684 
         1.8065         54.7952         8.37937 
        1.82218         53.3097          8.2071 
        1.83797         53.0815          8.0385 
        1.85367          52.622         7.87558 
        1.86928          52.202         7.71816 
        1.88497         51.1229         7.56419 
        1.90073         50.5128         7.41386 
        1.91647         50.1596         7.26776 
        1.93218         50.0024         7.12591 
        1.94787         49.0957         6.98806 
        1.96363          48.197         6.85332 
        1.97935          47.882         6.72242 
        1.99499         47.2594         6.59568 
        2.01064         46.8272         6.47203 
         2.0264         46.4193         6.35077 
        2.04216         45.6475         6.23269 
        2.05781          45.068         6.11836 
        2.07353         44.4369          6.0065 
        2.08928         44.3418         5.89719 
        2.10499         43.7761          5.7909 
        2.12065         43.2438         5.68755 
        2.13633         42.9237         5.58664 
        2.15211         42.1682         5.48753 
        2.16785         41.5639          5.3911 
        2.18349         41.0862          5.2976 
        2.19916         40.7236         5.20612 
        2.21489         40.3612          5.1165 
        2.23063         39.8626         5.02893 
         2.2463          39.554         4.94381 
        2.26194         38.9872         4.86088 
        2.27765         38.5415         4.77942 
        2.29341         38.1231         4.69962 
        2.30914          37.735         4.62181 
        2.32486         37.0715         4.54581 
        2.34061         36.9254         4.47139 
        2.35635         36.4741          4.3987 
        2.37203         36.1397         4.32789 
        2.38768         35.7965         4.25878 
        2.40339         35.5633         4.19093 
        2.41914         35.0419          4.1244 
        2.43483         34.6495         4.05956 
         2.4505         34.2737         3.99622 
        2.46622         33.9139         3.93401 
        2.48195          33.605         3.87312 
        2.49759          33.078         3.81385 
        2.51328         32.8284         3.75567 
        2.52906         32.5548         3.69833 
        2.54479         32.1498         3.64241 
        2.56049         31.9935         3.58775 
        2.57618         31.5381         3.53426 
        2.59189         31.0816         3.48178 
        2.60758         30.8779         3.43046 
        2.62325         30.5786         3.38022 
        2.63898         30.3921         3.33082 
        2.65468         29.8849         3.28252 
        2.67044         29.6504         3.23496 
        2.68618         29.4436         3.18846 
        2.70184         29.0157         3.14305 
        2.71755         28.8099         3.09842 
        2.73329         28.4259         3.05459 
        2.74897         28.1278         3.01175 
        2.76462         27.9193         2.96982 
        2.78034         27.5928         2.92852 
        2.79607         27.3195         2.88797 
        2.81179         27.1169         2.84823 
        2.82749         26.7711         2.80928 
        2.84321         26.5914         2.77101 
        2.85893         26.3416         2.73347 
        2.87462         25.9927         2.69669 
        2.89033         25.7846         2.66056 
        2.90605         25.5213         2.62505 
        2.92176         25.2976         2.59021 
        2.93747         25.0165         2.55603 
        2.95318         24.8722         2.52245 
        2.96891         24.5769         2.48946 
        2.98456         24.3068          2.4572 
        3.00023         24.0304         2.42547 
        3.01596         23.7416         2.39421 
        3.03164         23.5665         2.36358 
        3.04738         23.3875          2.3334 
         3.0631          23.158         2.30376 
        3.07883         22.8839         2.27463 
        3.09456         22.6648         2.24601 
        3.11026         22.4187         2.21792 
        3.12596         22.1516         2.19032 
        3.14163         21.9474         2.16326 
        3.15734         21.8087         2.13658 
        3.17308          21.605         2.11029 
        3.18879          21.373         2.08452 
        3.20447         21.1748         2.05922 
         3.2202         20.9364         2.03425 
         3.2359         20.7854         2.00975 
        3.25157         20.5638         1.98571 
        3.26729         20.3902         1.96198 
        3.28304         20.1879          1.9386 
        3.29877         19.9849         1.91563 
        3.31446          19.785         1.89309 
        3.33014         19.5981         1.87092 
        3.34585         19.5023         1.84908 
        3.36158         19.2196         1.82755 
        3.37727         19.0942         1.80643 
        3.39294         18.9608         1.78567 
        3.40867         18.7405         1.76516 
        3.42439         18.5757         1.74498 
        3.44008         18.3889         1.72515 
        3.45578         18.2061         1.70562 
        3.47153         18.0291         1.68635 
        3.48724         17.8771         1.66741 
        3.50292          17.732         1.64881 
        3.51859         17.5421         1.63049 
        3.53431          17.424          1.6124 
        3.55007         17.2176         1.59454 
        3.56577         17.0936         1.57702 
        3.58146         16.9044         1.55977 
        3.59719         16.7992         1.54274 
        3.61292         16.6037         1.52597 
        3.62859         16.4212         1.50951 
        3.64429         16.2786         1.49327 
        3.66003         16.1993         1.47721 
        3.67578         16.0778         1.46139 
        3.69146         15.8687         1.44587 
        3.70712         15.7423          1.4306 
        3.72284         15.5756         1.41549 
        3.73853         15.5124         1.40063 
        3.75422         15.2857         1.38597 
        3.76993         15.2041         1.37152 
        3.78564         15.0241         1.35727 
        3.80137         14.9167          1.3432 
        3.81707         14.7311         1.32937 
        3.83279         14.6816         1.31571 
        3.84853         14.5051         1.30223 
        3.86424         14.3514         1.28896 
        3.87992         14.2811         1.27589 
        3.89561         14.1484         1.26301 
        3.91134         14.0439         1.25028 
        3.92704          13.919         1.23774 
        3.94273         13.7859         1.22538 
        3.95845         13.6465         1.21317 
        3.97418         13.5233         1.20112 
        3.98988         13.4217         1.18925 
        4.00554         13.3147         1.17758 
        4.02125         13.1717         1.16602 
        4.03698         13.1018         1.15461 
        4.05268         12.9694         1.14337 
        4.06839         12.8421         1.13228 
         4.0841         12.7385         1.12133 
        4.09983          12.579         1.11052 
        4.11555         12.4969         1.09985 
        4.13124          12.382         1.08935 
        4.14693         12.2913         1.07898 
        4.16266         12.1917         1.06872 
        4.17839         12.0963          1.0586 
        4.19408         11.9897         1.04863 
        4.20977         11.8778         1.03879 
        4.22551         11.7924         1.02905 
        4.24123         11.7047         1.01945 
        4.25691         11.6046         1.00999 
        4.27259         11.4743         1.00065 
        4.28831         11.4093        0.991412 
        4.30404         11.3232         0.98228 
        4.31974         11.2172        0.973283 
        4.33543         11.0902        0.964403 
        4.35116         11.0505        0.955613 
        4.36688         10.9141        0.946936 
        4.38255         10.8099        0.938399 
        4.39825         10.7442        0.929949 
        4.41398         10.6396        0.921586 
         4.4297         10.5769        0.913334 
        4.44541         10.4846        0.905185 
        4.46111         10.3795        0.897142 
        4.47683         10.2818         0.88919 
        4.49251         10.2055        0.881351 
        4.50819         10.1229        0.873609 
         4.5239         10.0774        0.865949 
        4.53962         9.97055         0.85837 
        4.55535         9.88408        0.850879 
        4.57106         9.82619        0.843488 
        4.58678         9.73731        0.836183 
         4.6025         9.66458        0.828963 
        4.61821         9.58296        0.821829 
        4.63391         9.49638        0.814788 
         4.6496          9.4298        0.807833 
        4.66532          9.3522        0.800948 
        4.68103         9.25739        0.794146 
        4.69673          9.1963         0.78743 
        4.71241         9.09739        0.780798 
        4.72811         9.05386        0.774232 
        4.74384         8.97511        0.767732 
        4.75955         8.89198        0.761317 
        4.77525          8.8324        0.754979 
        4.79096         8.77099        0.748706 
        4.80669         8.70139          0.7425 
         4.8224         8.61536        0.736372 
        4.83809         8.56837        0.730319 
        4.85379         8.50088        0.724331 
         4.8695         8.42445        0.718405 
        4.88521         8.35106        0.712548 
        4.90093         8.31172        0.706756 
        4.91663         8.23871        0.701032 
        4.93234         8.17457        0.695366 
        4.94807         8.11018        0.689759 
        4.96377         8.05751        0.684225 
        4.97943         7.99749        0.678762 
        4.99514         7.92684        0.673345 
        5.01086         7.88224        0.667983 
        5.02654         7.80495        0.662693 
        5.04227         7.72409        0.657445 
          5.058         7.67982        0.652251 
        5.07371         7.63449        0.647124 
        5.08942         7.55922        0.642051 
        5.10513         7.50837        0.637031 
        5.12084         7.45535        0.632063 
        5.13656          7.4189        0.627149 
        5.15225          7.3232        0.622295 
        5.16796          7.2931        0.617485 
        5.18369         7.23272        0.612721 
         5.1994          7.1898        0.608016 
        5.21509         7.13052        0.603365 
        5.23079         7.05686        0.598757 
        5.24649         7.02934        0.594201 
        5.26217         6.97608        0.589695 
        5.27788         6.92334        0.585229 
        5.29359         6.87208        0.580809 
        5.30933         6.80189        0.576429 
        5.32504         6.76427          0.5721 
        5.34073         6.72703        0.567821 
        5.35646         6.65861        0.563577 
        5.37218          6.6273        0.559376 
        5.38789         6.56614        0.555224 
        5.40357         6.51786        0.551119 
        5.41929         6.47874        0.547046 
        5.43502          6.4395        0.543015 
         5.4507         6.39527        0.539033 
        5.46639         6.32991        0.535091 
        5.48212         6.29433        0.531178 
        5.49786         6.25083        0.527301 
        5.51353         6.20577        0.523481 
        5.52921         6.15995        0.519695 
        5.54495         6.11097        0.515936 
        5.56066          6.0738        0.512217 
        5.57637         6.03439        0.508536 
        5.59207         5.98293        0.504895 
        5.60778         5.94473        0.501287 
        5.62346          5.9083         0.49772 
        5.63916         5.86683        0.494184 
        5.65487         5.82679        0.490681 
         5.6706         5.78347        0.487208 
        5.68633         5.74789        0.483766 
        5.70203          5.7153        0.480366 
        5.71773         5.66298        0.476998 
        5.73344         5.62698        0.473661 
        5.74916         5.59015        0.470353 
        5.76486         5.55138         0.46708 
        5.78054         5.50885        0.463844 
        5.79626         5.47748         0.46063 
          5.812          5.4264        0.457443 
         5.8277         5.39522        0.454295 
        5.84339         5.35579        0.451177 
        5.85911         5.31567        0.448082 
        5.87484         5.28504        0.445017 
        5.89053         5.24477        0.441986 
        5.90623         5.22464        0.438982 
        5.92195         5.18863        0.436001 
        5.93767         5.14298        0.433049 
        5.95336         5.11727         0.43013 
        5.96905         5.07735        0.427238 
        5.98476         5.04243        0.424369 
        6.00048         5.01175        0.421525 
        6.01617         4.97961        0.418711 
        6.03185         4.94493        0.415927 
        6.04756         4.91861        0.413161 
        6.06331         4.87909        0.410414 
        6.07903         4.83255        0.407698 
        6.09473          4.8085        0.405009 
        6.11044         4.79171        0.402341 
        6.12616         4.74429        0.399699 
        6.14186         4.71804        0.397082 
        6.15755         4.68945        0.394489 
        6.17326         4.66434        0.391917 
        6.18898         4.63192        0.389367 
        6.20467         4.60697        0.386845 
        6.22036         4.56709        0.384344 
         6.2361         4.54116        0.381859 
         6.2518         4.51786          0.3794 
        6.26748         4.48911        0.376969 
        6.28319         4.46004        0.374551 
        6.29893         4.42167        0.372153 
        6.31463         4.39628         0.36978 
        6.33033         4.37674        0.367428 
        6.34604         4.34948        0.365095 
        6.36177         4.31486         0.36278 
        6.37747         4.29015         0.36049 
