# k  (h/Mpc)    Pcb(k)  (Mpc/h)^3    Pcb_linear(k) (Mpc/h)^3   ShotnoiseSubtracted = true
      0.0200456         28152.4           28911 
      0.0350414         21341.9         22669.2 
      0.0492313         17251.2           17961 
      0.0637834         14753.3         14605.1 
      0.0800726         11203.7         11032.8 
       0.096163         8190.33         8677.98 
       0.111083          6911.3         7345.89 
       0.126058         6133.27         6106.53 
       0.142273         5212.23         4969.11 
       0.158546         4862.14          4233.1 
        0.17375          3969.2         3682.94 
       0.188953         3852.08         3166.21 
       0.204907         3609.16         2740.81 
       0.220756         3184.89         2422.44 
        0.23588         2891.32         2151.65 
         0.2514          2552.9         1906.53 
       0.267535         2565.14          1700.3 
       0.283568         2326.81         1527.87 
       0.299022         2228.13         1379.71 
       0.314451          2118.7         1250.92 
       0.330372         1930.68          1137.4 
       0.346141         1928.46         1038.31 
       0.361624         1851.33         951.631 
       0.377134         1740.27         874.973 
       0.392932         1665.51         805.895 
       0.408854         1632.63          743.61 
       0.424564         1505.83         688.443 
       0.440253         1475.32         639.063 
       0.455999         1465.33         594.414 
       0.471626         1400.29         554.258 
        0.48727         1355.18         517.765 
       0.502856         1290.64         484.694 
       0.518488         1308.94         454.428 
       0.534347          1218.7         426.351 
       0.550082         1212.53         400.842 
       0.565732          1188.7         377.548 
       0.581496         1140.48         355.957 
       0.597222         1106.39         336.102 
       0.612804          1092.4         317.928 
       0.628434         1061.08         301.054 
       0.644267         1035.88         285.214 
       0.660051         1017.39         270.561 
       0.675724          1006.4         257.033 
       0.691403         980.138         244.428 
       0.707174         944.975         232.605 
       0.722871         918.726         221.617 
        0.73838         908.276         211.461 
       0.754018         889.868         201.867 
       0.769845         875.888         192.765 
        0.78569         863.729         184.218 
       0.801365         838.201         176.274 
       0.817031         825.972         168.805 
       0.832809          810.35         161.722 
       0.848511         794.572         155.078 
       0.864097         770.814         148.855 
       0.879701         756.439         142.968 
       0.895507         751.033          137.33 
       0.911279         742.684          132.01 
        0.92691         721.546         127.017 
       0.942635         701.927         122.255 
       0.958396           695.6         117.729 
       0.974128         683.448          113.44 
       0.989692         672.522         109.409 
        1.00528         651.013         105.569 
        1.02113         651.267         101.854 
        1.03692         635.528         98.3322 
        1.05264         625.037          94.994 
        1.06832          612.96         91.8167 
        1.08405         600.169         88.7771 
        1.09979         590.279         85.8738 
        1.11537         581.541         83.1298 
        1.13105         573.602         80.4898 
        1.14679          561.33         77.9548 
        1.16256           552.4         75.5245 
        1.17828          545.57         73.2062 
        1.19395         535.627         70.9935 
         1.2097         521.337         68.8613 
        1.22537         514.567         66.8272 
          1.241         505.063         64.8818 
        1.25666         503.193         63.0093 
        1.27241          490.92         61.2021 
        1.28819         477.627          59.463 
        1.30392         474.855         57.7968 
        1.31957         462.465         56.2021 
        1.33529         456.983         54.6619 
        1.35108          448.32         53.1735 
        1.36674         440.441         51.7513 
         1.3824         435.821         50.3826 
        1.39811           425.1          49.059 
        1.41389          421.01         47.7781 
        1.42964         416.597         46.5452 
        1.44531         410.652          45.362 
        1.46101         402.937         44.2175 
        1.47667         393.174          43.116 
        1.49229          390.27         42.0551 
        1.50793          378.96         41.0288 
        1.52367         377.238         40.0302 
        1.53953         366.198         39.0583 
        1.55526         366.371         38.1265 
        1.57092         362.062          37.229 
        1.58662         354.405         36.3583 
        1.60235         349.715         35.5139 
        1.61809         345.541          34.696 
        1.63369         337.524         33.9111 
        1.64941         331.601          33.145 
        1.66519         327.642         32.3998 
        1.68085         324.818         31.6829 
        1.69652         321.029         30.9875 
        1.71228         313.202         30.3091 
        1.72806         310.845         29.6506 
        1.74368         304.124         29.0182 
        1.75933         300.197         28.4031 
        1.77505         294.902         27.8029 
        1.79081         291.832         27.2191 
         1.8065         286.795         26.6545 
        1.82218         284.332         26.1066 
        1.83797         279.423         25.5702 
        1.85367         274.308          25.052 
        1.86928         270.166         24.5512 
        1.88497         267.382         24.0615 
        1.90073          262.93         23.5833 
        1.91647         258.928         23.1185 
        1.93218         255.339         22.6673 
        1.94787         252.195         22.2288 
        1.96363          248.84         21.8002 
        1.97935         244.218         21.3838 
        1.99499          240.94         20.9807 
        2.01064         237.671         20.5873 
         2.0264         234.361         20.2016 
        2.04216         232.291          19.826 
        2.05781         229.144         19.4623 
        2.07353         224.945         19.1065 
        2.08928          222.11         18.7588 
        2.10499         218.713         18.4207 
        2.12065         215.537         18.0919 
        2.13633         213.699         17.7709 
        2.15211         210.771         17.4557 
        2.16785         208.768         17.1489 
        2.18349         205.781         16.8515 
        2.19916         201.849         16.5605 
        2.21489         201.181         16.2754 
        2.23063         197.712         15.9969 
         2.2463         194.531         15.7261 
        2.26194         191.932         15.4623 
        2.27765          188.74         15.2032 
        2.29341         186.942         14.9494 
        2.30914         184.279         14.7018 
        2.32486         182.999         14.4601 
        2.34061         179.021         14.2234 
        2.35635         178.756         13.9921 
        2.37203         175.091         13.7669 
        2.38768         172.281         13.5471 
        2.40339         171.387         13.3312 
        2.41914         168.819         13.1196 
        2.43483          166.97         12.9133 
         2.4505         164.254         12.7118 
        2.46622         163.301          12.514 
        2.48195         160.798         12.3203 
        2.49759         158.885         12.1318 
        2.51328         156.523         11.9467 
        2.52906         155.003         11.7643 
        2.54479         153.518         11.5864 
        2.56049         151.574         11.4125 
        2.57618         149.852         11.2424 
        2.59189         147.927         11.0755 
        2.60758         145.664         10.9122 
        2.62325         144.422         10.7524 
        2.63898         142.026         10.5953 
        2.65468         141.355         10.4416 
        2.67044         139.974         10.2903 
        2.68618         137.976         10.1424 
        2.70184         136.116         9.99796 
        2.71755         134.709         9.85599 
        2.73329           132.4         9.71656 
        2.74897         131.628         9.58028 
        2.76462         129.996         9.44692 
        2.78034         128.671         9.31555 
        2.79607         127.081         9.18654 
        2.81179          125.72         9.06012 
        2.82749         124.491         8.93623 
        2.84321         122.362         8.81451 
        2.85893         120.982          8.6951 
        2.87462          119.89         8.57811 
        2.89033         118.284         8.46316 
        2.90605         117.979         8.35022 
        2.92176         115.683          8.2394 
        2.93747         114.735         8.13065 
        2.95318         113.462         8.02383 
        2.96891          112.28         7.91889 
        2.98456         111.026          7.8163 
        3.00023         110.034         7.71537 
        3.01596         108.637         7.61591 
        3.03164         107.697         7.51848 
        3.04738         106.171         7.42248 
         3.0631         105.064         7.32819 
        3.07883         104.009         7.23553 
        3.09456         102.866         7.14449 
        3.11026         101.987         7.05515 
        3.12596         100.513         6.96735 
        3.14163         99.4924         6.88125 
        3.15734         99.0437         6.79641 
        3.17308         97.5701         6.71279 
        3.18879         96.4036          6.6308 
        3.20447         95.6589         6.55031 
         3.2202         94.6232          6.4709 
         3.2359         93.7203         6.39295 
        3.25157         92.7808         6.31647 
        3.26729         91.6319         6.24101 
        3.28304         90.7086         6.16664 
        3.29877         89.9595         6.09357 
        3.31446         88.7755         6.02185 
        3.33014          88.502         5.95135 
        3.34585         87.0047         5.88186 
        3.36158         86.3122         5.81338 
        3.37727         85.1284         5.74621 
        3.39294         84.2725         5.68016 
        3.40867         83.5781         5.61491 
        3.42439         82.6956         5.55072 
        3.44008         81.9231         5.48766 
        3.45578         81.0066         5.42553 
        3.47153         80.3766         5.36423 
        3.48724         79.3514         5.30398 
        3.50292         78.7391          5.2448 
        3.51859         77.8029         5.18655 
        3.53431         77.0584           5.129 
        3.55007         76.4075         5.07219 
        3.56577         75.6915         5.01646 
        3.58146         75.2459         4.96159 
        3.59719         74.1825         4.90742 
        3.61292         73.4052         4.85407 
        3.62859         72.7717         4.80172 
        3.64429         72.0331         4.75004 
        3.66003          71.337         4.69896 
        3.67578         70.5007         4.64865 
        3.69146         70.0247         4.59926 
        3.70712         69.4155         4.55069 
        3.72284         68.7468         4.50263 
        3.73853         68.0996         4.45536 
        3.75422         67.4728         4.40874 
        3.76993         66.7909         4.36275 
        3.78564         65.9237         4.31744 
        3.80137         65.6198         4.27269 
        3.81707         65.0457         4.22868 
        3.83279         64.3044         4.18524 
        3.84853         63.8264         4.14235 
        3.86424         63.1477         4.10014 
        3.87992           62.74         4.05858 
        3.89561         62.0283          4.0176 
        3.91134         61.3438          3.9771 
        3.92704         60.9717          3.9372 
        3.94273         60.4035         3.89789 
        3.95845         59.8379         3.85905 
        3.97418         59.0783         3.82072 
        3.98988         58.6353         3.78297 
        4.00554         58.1519         3.74583 
        4.02125         57.6923         3.70909 
        4.03698         57.2238         3.67278 
        4.05268         56.6063         3.63703 
        4.06839          56.256         3.60174 
         4.0841         55.5745         3.56693 
        4.09983         55.2728         3.53252 
        4.11555         54.6387         3.49859 
        4.13124         54.1473         3.46519 
        4.14693          53.782          3.4322 
        4.16266         53.2518         3.39957 
        4.17839         52.8382         3.36738 
        4.19408         52.2908         3.33567 
        4.20977         51.8857         3.30436 
        4.22551         51.3241         3.27338 
        4.24123          50.901         3.24283 
        4.25691         50.3991         3.21275 
        4.27259         50.0725         3.18304 
        4.28831         49.8141         3.15365 
        4.30404         49.1402          3.1246 
        4.31974         48.9262         3.09598 
        4.33543         48.3223         3.06774 
        4.35116         47.9262         3.03978 
        4.36688         47.5325         3.01218 
        4.38255          47.108         2.98502 
        4.39825         46.7138         2.95814 
        4.41398         46.3151         2.93154 
         4.4297         45.9631         2.90529 
        4.44541         45.4809         2.87937 
        4.46111         45.0843         2.85378 
        4.47683         44.7282         2.82849 
        4.49251         44.4951         2.80355 
        4.50819          43.946         2.77893 
         4.5239         43.6343         2.75456 
        4.53962         43.2702         2.73045 
        4.55535         42.9364         2.70662 
        4.57106         42.6608         2.68311 
        4.58678         42.2073         2.65987 
         4.6025         41.8705         2.63691 
        4.61821          41.503         2.61421 
        4.63391         41.2293         2.59182 
         4.6496         40.7126         2.56969 
        4.66532         40.4774         2.54779 
        4.68103         40.2321         2.52616 
        4.69673         39.8751         2.50479 
        4.71241         39.6005          2.4837 
        4.72811         39.2356         2.46281 
        4.74384          38.898         2.44213 
        4.75955         38.6607         2.42173 
        4.77525         38.3417         2.40157 
        4.79096         38.0292         2.38161 
        4.80669         37.6674         2.36187 
         4.8224         37.4297         2.34238 
        4.83809          37.115         2.32313 
        4.85379         36.7879         2.30408 
         4.8695         36.5091         2.28523 
        4.88521         36.1938          2.2666 
        4.90093          35.844         2.24817 
        4.91663         35.6751         2.22996 
        4.93234         35.3481         2.21194 
        4.94807         35.0761          2.1941 
        4.96377         34.7493          2.1765 
        4.97943         34.5671         2.15912 
        4.99514         34.1972         2.14189 
        5.01086         33.9517         2.12484 
        5.02654         33.7125         2.10801 
        5.04227          33.517         2.09131 
          5.058         33.1321         2.07479 
        5.07371         32.9596         2.05848 
        5.08942         32.6474         2.04234 
        5.10513         32.4535         2.02638 
        5.12084         32.1295         2.01057 
        5.13656         32.0161         1.99494 
        5.15225         31.6862          1.9795 
        5.16796         31.4473          1.9642 
        5.18369         31.2087         1.94905 
         5.1994         30.9791         1.93408 
        5.21509          30.731         1.91929 
        5.23079         30.4199         1.90463 
        5.24649          30.197         1.89014 
        5.26217         29.9495          1.8758 
        5.27788         29.7792          1.8616 
        5.29359         29.4935         1.84754 
        5.30933         29.3432          1.8336 
        5.32504         29.1454         1.81983 
        5.34073         28.8919         1.80622 
        5.35646         28.6864         1.79272 
        5.37218         28.4326         1.77936 
        5.38789         28.2531         1.76615 
        5.40357         27.9773         1.75309 
        5.41929         27.8212         1.74014 
        5.43502         27.6209         1.72731 
         5.4507           27.44         1.71465 
        5.46639         27.2295         1.70211 
        5.48212         26.9815         1.68966 
        5.49786         26.7878         1.67733 
        5.51353         26.6063         1.66518 
        5.52921         26.3587         1.65314 
        5.54495         26.2277         1.64118 
        5.56066         26.0143         1.62935 
        5.57637         25.8053         1.61764 
        5.59207         25.6297         1.60606 
        5.60778         25.4695         1.59458 
        5.62346         25.2545         1.58323 
        5.63916         25.1158         1.57199 
        5.65487         24.9009         1.56084 
         5.6706         24.6805         1.54979 
        5.68633         24.4551         1.53885 
        5.70203         24.3188         1.52803 
        5.71773         24.1973         1.51732 
        5.73344         24.0087          1.5067 
        5.74916         23.8522         1.49618 
        5.76486         23.6737         1.48577 
        5.78054         23.4881         1.47548 
        5.79626         23.2976         1.46525 
          5.812         23.1294         1.45511 
         5.8277         22.8907          1.4451 
        5.84339         22.8233         1.43518 
        5.85911         22.6608         1.42534 
        5.87484         22.5029         1.41559 
        5.89053         22.2896         1.40594 
        5.90623         22.1536         1.39639 
        5.92195         22.0176         1.38691 
        5.93767         21.8477         1.37752 
        5.95336            21.7         1.36823 
        5.96905         21.5609         1.35903 
        5.98476         21.3972         1.34991 
        6.00048         21.2142         1.34086 
        6.01617         21.0797         1.33191 
        6.03185         20.9363         1.32305 
        6.04756         20.8217         1.31425 
        6.06331         20.6363         1.30551 
        6.07903           20.49         1.29687 
        6.09473         20.3966         1.28832 
        6.11044         20.2038         1.27984 
        6.12616         20.0945         1.27143 
        6.14186         19.9617         1.26311 
        6.15755         19.8029         1.25486 
        6.17326         19.6721         1.24668 
        6.18898         19.5553         1.23857 
        6.20467          19.397         1.23054 
        6.22036         19.2719         1.22259 
         6.2361         19.1148         1.21468 
         6.2518         18.9886         1.20686 
        6.26748         18.8809         1.19913 
        6.28319         18.7311         1.19144 
        6.29893          18.637         1.18381 
        6.31463         18.4913         1.17626 
        6.33033         18.3792         1.16878 
        6.34604         18.2591         1.16136 
        6.36177         18.0967         1.15399 
        6.37747         18.0132         1.14671 
