# k  (h/Mpc)    Pcb(k)  (Mpc/h)^3    Pcb_linear(k) (Mpc/h)^3   ShotnoiseSubtracted = true
      0.0200456         1811.97         1835.71 
      0.0350414         1425.26         1439.38 
      0.0492313         1138.86         1140.44 
      0.0637834         936.394         927.356 
      0.0800726         712.001         700.528 
       0.096163         546.196          551.01 
       0.111083         457.343         466.429 
       0.126058         390.858         387.736 
       0.142273         322.359         315.515 
       0.158546         274.121         268.782 
        0.17375         232.685         233.849 
       0.188953         206.234         201.039 
       0.204907         186.018         174.028 
       0.220756          160.39         153.813 
        0.23588         142.158          136.62 
         0.2514          124.95         121.056 
       0.267535         113.604         107.961 
       0.283568         102.955         97.0124 
       0.299022         94.1754         87.6049 
       0.314451         83.9618         79.4278 
       0.330372         77.6401         72.2192 
       0.346141         70.7456         65.9277 
       0.361624         65.7919         60.4241 
       0.377134         61.7128         55.5566 
       0.392932         54.7543         51.1705 
       0.408854         52.6655         47.2157 
       0.424564          49.494         43.7128 
       0.440253         45.5993         40.5774 
       0.455999         43.0498         37.7425 
       0.471626         40.3407         35.1927 
        0.48727         38.2764         32.8756 
       0.502856         35.8303         30.7758 
       0.518488         34.2575          28.854 
       0.534347          32.787         27.0713 
       0.550082         30.0141         25.4515 
       0.565732         27.9426         23.9725 
       0.581496         27.3864         22.6016 
       0.597222         26.3983         21.3408 
       0.612804         24.6081         20.1869 
       0.628434         23.7315         19.1155 
       0.644267         23.0092         18.1097 
       0.660051         21.7602         17.1794 
       0.675724         20.6583         16.3204 
       0.691403         19.9775           15.52 
       0.707174         19.2008         14.7693 
       0.722871         18.4203         14.0716 
        0.73838         17.7655         13.4267 
       0.754018         17.1062         12.8176 
       0.769845          16.428         12.2397 
        0.78569         15.9274          11.697 
       0.801365         15.2864         11.1926 
       0.817031          14.856         10.7183 
       0.832809         14.5041         10.2686 
       0.848511         13.6289         9.84674 
       0.864097         13.3071         9.45156 
       0.879701         12.9151         9.07776 
       0.895507         12.4201         8.71983 
       0.911279         12.1864         8.38201 
        0.92691         11.7935         8.06496 
       0.942635         11.2983         7.76262 
       0.958396         10.9946          7.4752 
       0.974128         10.7016         7.20293 
       0.989692          10.589         6.94697 
        1.00528         10.2046         6.70313 
        1.02113          9.8029         6.46724 
        1.03692         9.60398         6.24363 
        1.05264         9.34688         6.03167 
        1.06832         9.14072         5.82993 
        1.08405         8.81873         5.63692 
        1.09979         8.62096         5.45258 
        1.11537         8.47574         5.27835 
        1.13105         8.24099         5.11072 
        1.14679         8.07865         4.94976 
        1.16256         7.83463         4.79545 
        1.17828         7.73629         4.64825 
        1.19395         7.48449         4.50775 
         1.2097         7.28447         4.37236 
        1.22537         7.11167         4.24321 
          1.241         7.00295         4.11969 
        1.25666         6.91431         4.00079 
        1.27241         6.69664         3.88604 
        1.28819         6.54041         3.77562 
        1.30392         6.45023         3.66982 
        1.31957         6.30991         3.56856 
        1.33529         6.18835         3.47077 
        1.35108         6.02618         3.37626 
        1.36674         5.98498         3.28596 
         1.3824         5.76079         3.19906 
        1.39811         5.69298         3.11502 
        1.41389         5.60037         3.03368 
        1.42964         5.50124          2.9554 
        1.44531         5.39925         2.88027 
        1.46101         5.29568          2.8076 
        1.47667          5.1763         2.73766 
        1.49229         5.13036          2.6703 
        1.50793         4.98522         2.60513 
        1.52367         4.95454         2.54173 
        1.53953         4.83337         2.48001 
        1.55526         4.74271         2.42085 
        1.57092         4.70288         2.36386 
        1.58662          4.5829         2.30858 
        1.60235         4.52755         2.25496 
        1.61809         4.44641         2.20303 
        1.63369         4.36948         2.15319 
        1.64941         4.30962         2.10455 
        1.66519         4.25039         2.05723 
        1.68085         4.16034         2.01171 
        1.69652         4.09384         1.96756 
        1.71228         4.04146         1.92449 
        1.72806         3.97288         1.88267 
        1.74368         3.90601         1.84252 
        1.75933         3.86369         1.80346 
        1.77505         3.81044         1.76535 
        1.79081         3.73084         1.72828 
         1.8065          3.6935         1.69244 
        1.82218         3.64816         1.65764 
        1.83797         3.61107         1.62359 
        1.85367         3.54684         1.59068 
        1.86928         3.50131         1.55889 
        1.88497         3.44256         1.52779 
        1.90073         3.38813         1.49743 
        1.91647         3.34025         1.46792 
        1.93218         3.32081         1.43927 
        1.94787         3.27767         1.41142 
        1.96363         3.22216         1.38421 
        1.97935         3.17642         1.35777 
        1.99499           3.116         1.33217 
        2.01064         3.09577          1.3072 
         2.0264         3.06066         1.28271 
        2.04216         3.02238         1.25886 
        2.05781         2.97891         1.23577 
        2.07353         2.94497         1.21317 
        2.08928         2.91512         1.19109 
        2.10499         2.87206         1.16963 
        2.12065         2.85332         1.14875 
        2.13633         2.80704         1.12837 
        2.15211         2.77072         1.10835 
        2.16785         2.74418         1.08888 
        2.18349         2.71663         1.06999 
        2.19916         2.66116         1.05151 
        2.21489         2.64527         1.03341 
        2.23063         2.60613         1.01573 
         2.2463         2.58535        0.998534 
        2.26194         2.55012        0.981783 
        2.27765          2.5305        0.965331 
        2.29341         2.49843        0.949213 
        2.30914         2.47194        0.933497 
        2.32486         2.45369        0.918146 
        2.34061         2.42021        0.903115 
        2.35635         2.37921        0.888435 
        2.37203         2.37571        0.874132 
        2.38768          2.3481        0.860173 
        2.40339         2.32575         0.84647 
        2.41914         2.29492        0.833033 
        2.43483         2.27585        0.819935 
         2.4505         2.24142        0.807142 
        2.46622         2.23389        0.794578 
        2.48195         2.20122         0.78228 
        2.49759         2.17994        0.770309 
        2.51328         2.15749        0.758557 
        2.52906         2.14652        0.746977 
        2.54479         2.11678        0.735681 
        2.56049          2.0972        0.724642 
        2.57618         2.07982        0.713838 
        2.59189         2.07022        0.703239 
        2.60758         2.03604        0.692872 
        2.62325         2.02058        0.682726 
        2.63898         1.99667        0.672748 
        2.65468         1.98028        0.662991 
        2.67044         1.96861        0.653386 
        2.68618         1.94127        0.643993 
        2.70184          1.9254        0.634823 
        2.71755         1.91046        0.625809 
        2.73329         1.89041        0.616955 
        2.74897         1.87757        0.608302 
        2.76462         1.85647        0.599835 
        2.78034         1.84922        0.591493 
        2.79607         1.82337        0.583302 
        2.81179         1.80921        0.575275 
        2.82749         1.79534        0.567408 
        2.84321         1.78069        0.559679 
        2.85893         1.76419        0.552097 
        2.87462         1.75008        0.544669 
        2.89033         1.72539         0.53737 
        2.90605         1.71448        0.530199 
        2.92176         1.70501        0.523162 
        2.93747         1.69069        0.516257 
        2.95318         1.67704        0.509475 
        2.96891         1.66211        0.502812 
        2.98456         1.65046        0.496298 
        3.00023         1.63444        0.489889 
        3.01596         1.62681        0.483574 
        3.03164         1.61339        0.477388 
        3.04738         1.59105        0.471292 
         3.0631         1.58045        0.465305 
        3.07883         1.57203        0.459421 
        3.09456         1.56458        0.453641 
        3.11026         1.54558        0.447968 
        3.12596         1.53588        0.442394 
        3.14163         1.52299        0.436927 
        3.15734         1.51474        0.431539 
        3.17308         1.49995         0.42623 
        3.18879         1.49444        0.421025 
        3.20447         1.47732        0.415913 
         3.2202         1.46674        0.410872 
         3.2359         1.45692        0.405922 
        3.25157         1.44627        0.401066 
        3.26729         1.43352        0.396275 
        3.28304         1.42723        0.391552 
        3.29877         1.41245        0.386913 
        3.31446         1.40218        0.382359 
        3.33014         1.39843        0.377882 
        3.34585         1.38626         0.37347 
        3.36158         1.37176        0.369122 
        3.37727         1.36871        0.364857 
        3.39294         1.35261        0.360663 
        3.40867         1.34497         0.35652 
        3.42439         1.33592        0.352444 
        3.44008         1.32923         0.34844 
        3.45578          1.3222        0.344496 
        3.47153         1.30809        0.340603 
        3.48724         1.30005        0.336778 
        3.50292         1.29543         0.33302 
        3.51859         1.28838        0.329321 
        3.53431         1.27601        0.325667 
        3.55007         1.27017         0.32206 
        3.56577          1.2614        0.318521 
        3.58146         1.25249        0.315037 
        3.59719         1.24396        0.311598 
        3.61292         1.24066         0.30821 
        3.62859         1.22705        0.304886 
        3.64429         1.22074        0.301605 
        3.66003         1.21056        0.298361 
        3.67578         1.20487        0.295167 
        3.69146         1.19949        0.292031 
        3.70712         1.18555        0.288947 
        3.72284          1.1857        0.285896 
        3.73853         1.17397        0.282894 
        3.75422         1.16869        0.279934 
        3.76993         1.16333        0.277014 
        3.78564          1.1551        0.274137 
        3.80137         1.14333        0.271296 
        3.81707         1.14274        0.268501 
        3.83279          1.1315        0.265743 
        3.84853          1.1255        0.263019 
        3.86424          1.1198         0.26034 
        3.87992         1.11618        0.257701 
        3.89561         1.10782        0.255099 
        3.91134         1.10137        0.252527 
        3.92704         1.09378        0.249994 
        3.94273         1.08971        0.247498 
        3.95845         1.08156        0.245031 
        3.97418         1.07494        0.242598 
        3.98988          1.0668        0.240201 
        4.00554         1.06298        0.237843 
        4.02125         1.05504        0.235509 
        4.03698         1.04477        0.233204 
        4.05268         1.03732        0.230934 
        4.06839         1.02714        0.228693 
         4.0841         1.02386        0.226483 
        4.09983         1.01753        0.224298 
        4.11555         1.01014        0.222144 
        4.13124         1.00285        0.220023 
        4.14693        0.993656        0.217929 
        4.16266        0.988343        0.215856 
        4.17839        0.983614        0.213812 
        4.19408        0.977668        0.211799 
        4.20977        0.969801        0.209811 
        4.22551        0.964981        0.207844 
        4.24123        0.959248        0.205904 
        4.25691        0.952618        0.203994 
        4.27259        0.945978        0.202108 
        4.28831        0.941022        0.200242 
        4.30404        0.937599        0.198397 
        4.31974        0.926512         0.19658 
        4.33543        0.924322        0.194787 
        4.35116        0.919779        0.193011 
        4.36688        0.912984        0.191259 
        4.38255        0.908606        0.189535 
        4.39825        0.905354        0.187828 
        4.41398        0.898253        0.186139 
         4.4297        0.893484        0.184472 
        4.44541         0.88966        0.182826 
        4.46111        0.886594        0.181202 
        4.47683        0.882629        0.179596 
        4.49251        0.876815        0.178012 
        4.50819        0.872903        0.176449 
         4.5239        0.867939        0.174901 
        4.53962        0.865441        0.173371 
        4.55535        0.860134        0.171858 
        4.57106        0.858073        0.170365 
        4.58678        0.852753        0.168889 
         4.6025        0.849631        0.167431 
        4.61821        0.846925         0.16599 
        4.63391        0.840056        0.164568 
         4.6496        0.835844        0.163163 
        4.66532        0.834855        0.161773 
        4.68103        0.830032        0.160399 
        4.69673        0.828428        0.159042 
        4.71241        0.823151        0.157703 
        4.72811        0.821985        0.156377 
        4.74384        0.816449        0.155064 
        4.75955        0.813128        0.153768 
        4.77525        0.810237        0.152488 
        4.79096        0.808085        0.151221 
        4.80669        0.806449        0.149968 
         4.8224        0.802824         0.14873 
        4.83809        0.799381        0.147507 
        4.85379        0.797986        0.146298 
         4.8695        0.795764        0.145101 
        4.88521        0.790234        0.143918 
        4.90093        0.789699        0.142748 
        4.91663        0.788328        0.141592 
        4.93234        0.783037        0.140448 
        4.94807        0.782188        0.139315 
        4.96377        0.779298        0.138197 
        4.97943        0.776698        0.137094 
        4.99514        0.774788           0.136 
        5.01086         0.77294        0.134917 
        5.02654        0.771356        0.133849 
        5.04227        0.767744        0.132789 
          5.058          0.7653        0.131739 
        5.07371        0.763712        0.130704 
        5.08942        0.762869        0.129679 
        5.10513        0.760648        0.128665 
        5.12084        0.758999        0.127662 
        5.13656        0.757332        0.126669 
        5.15225        0.756763        0.125689 
        5.16796        0.752241        0.124717 
        5.18369        0.751071        0.123755 
         5.1994         0.75028        0.122805 
        5.21509        0.748464        0.121866 
        5.23079        0.748184        0.120935 
        5.24649        0.746528        0.120015 
        5.26217        0.742449        0.119105 
        5.27788        0.742683        0.118203 
        5.29359         0.74143         0.11731 
        5.30933        0.739753        0.116425 
        5.32504        0.738387        0.115551 
        5.34073        0.737468        0.114687 
        5.35646        0.735829        0.113829 
        5.37218         0.73485        0.112981 
        5.38789        0.734261        0.112142 
        5.40357        0.731396        0.111313 
        5.41929        0.732301        0.110491 
        5.43502        0.730678        0.109676 
         5.4507        0.730503        0.108872 
        5.46639        0.728268        0.108076 
        5.48212        0.725678        0.107286 
        5.49786        0.725473        0.106502 
        5.51353        0.723424        0.105731 
        5.52921        0.724285        0.104966 
        5.54495        0.723277        0.104207 
        5.56066        0.721721        0.103456 
        5.57637        0.722326        0.102712 
        5.59207        0.720564        0.101977 
        5.60778        0.718728        0.101248 
        5.62346        0.719698        0.100528 
        5.63916        0.717113       0.0998137 
        5.65487        0.716567       0.0991061 
         5.6706        0.719224       0.0984045 
        5.68633        0.715778       0.0977095 
        5.70203        0.715233       0.0970226 
        5.71773         0.71463       0.0963424 
        5.73344        0.711457       0.0956684 
        5.74916        0.714248       0.0950002 
        5.76486        0.712077       0.0943393 
        5.78054        0.711464       0.0936857 
        5.79626         0.71083       0.0930364 
          5.812        0.710936       0.0923927 
         5.8277        0.709417       0.0917569 
        5.84339        0.708995       0.0911271 
        5.85911        0.707659        0.090502 
        5.87484        0.707948       0.0898829 
        5.89053        0.707093       0.0892708 
        5.90623        0.706491       0.0886641 
        5.92195        0.705355        0.088062 
        5.93767        0.704734       0.0874658 
        5.95336        0.704626       0.0868761 
        5.96905        0.703861       0.0862921 
        5.98476        0.702413       0.0857126 
        6.00048         0.70407       0.0851382 
        6.01617        0.702073       0.0845699 
        6.03185         0.70066       0.0840074 
        6.04756        0.701622       0.0834488 
        6.06331        0.700952        0.082894 
        6.07903        0.699978       0.0823454 
        6.09473        0.699951       0.0818022 
        6.11044        0.700047       0.0812635 
        6.12616        0.698522       0.0807297 
        6.14186        0.697751       0.0802013 
        6.15755         0.69764       0.0796776 
        6.17326        0.698238       0.0791581 
        6.18898        0.696896       0.0786431 
        6.20467        0.698064       0.0781335 
        6.22036        0.694398       0.0776285 
         6.2361         0.69505       0.0771266 
         6.2518        0.695191         0.07663 
        6.26748         0.69446       0.0761388 
        6.28319        0.694677       0.0756506 
        6.29893        0.692675       0.0751662 
        6.31463        0.693559       0.0746869 
        6.33033        0.692286       0.0742119 
        6.34604         0.69238       0.0737407 
        6.36177        0.691219       0.0732731 
        6.37747        0.692326       0.0728105 
