# k  (h/Mpc)    Pcb(k)  (Mpc/h)^3    Pcb_linear(k) (Mpc/h)^3   ShotnoiseSubtracted = true
      0.0200456         2185.85         2215.05 
      0.0350414         1717.46         1736.82 
      0.0492313         1373.45          1376.1 
      0.0637834         1130.81         1118.99 
      0.0800726         859.884         845.288 
       0.096163         658.237         664.873 
       0.111083         550.842         562.814 
       0.126058         471.992         467.858 
       0.142273         389.807         380.714 
       0.158546         331.892         324.324 
        0.17375         280.973         282.173 
       0.188953         250.055         242.582 
       0.204907          226.36          209.99 
       0.220756         194.976         185.598 
        0.23588         172.761         164.851 
         0.2514         151.727         146.071 
       0.267535         138.486         130.271 
       0.283568         125.666         117.059 
       0.299022         115.132         105.708 
       0.314451         102.793         95.8409 
       0.330372         95.1346         87.1428 
       0.346141         86.6127         79.5512 
       0.361624         80.7436         72.9103 
       0.377134         75.8702          67.037 
       0.392932         67.3894         61.7445 
       0.408854           64.87         56.9725 
       0.424564         61.2362         52.7458 
       0.440253         56.4275         48.9625 
       0.455999         53.2895         45.5417 
       0.471626         49.8333         42.4651 
        0.48727         47.5297         39.6691 
       0.502856         44.5819         37.1354 
       0.518488         42.6536         34.8165 
       0.534347          40.876         32.6653 
       0.550082         37.4506         30.7109 
       0.565732         34.9869         28.9262 
       0.581496         34.2438          27.272 
       0.597222         33.0631         25.7508 
       0.612804         30.8669         24.3584 
       0.628434         29.7915         23.0656 
       0.644267         28.9735          21.852 
       0.660051         27.4621         20.7294 
       0.675724         26.0754         19.6929 
       0.691403         25.2264         18.7271 
       0.707174         24.3516         17.8213 
       0.722871         23.3561         16.9794 
        0.73838         22.5557         16.2013 
       0.754018         21.6823         15.4662 
       0.769845         20.9244         14.7689 
        0.78569         20.2859         14.1141 
       0.801365         19.4975         13.5054 
       0.817031         18.9839         12.9332 
       0.832809          18.575         12.3905 
       0.848511         17.4492         11.8815 
       0.864097         17.0937         11.4047 
       0.879701         16.6252         10.9536 
       0.895507         16.0553         10.5217 
       0.911279         15.6895         10.1141 
        0.92691         15.2284         9.73152 
       0.942635          14.605         9.36671 
       0.958396          14.255          9.0199 
       0.974128          13.859         8.69136 
       0.989692         13.7379         8.38251 
        1.00528         13.2953         8.08829 
        1.02113         12.7585         7.80365 
        1.03692         12.4916         7.53383 
        1.05264         12.1942         7.27807 
        1.06832         11.9269         7.03464 
        1.08405         11.5409         6.80175 
        1.09979          11.288         6.57932 
        1.11537         11.1041         6.36908 
        1.13105         10.8196         6.16681 
        1.14679         10.6341         5.97259 
        1.16256         10.2906         5.78639 
        1.17828         10.2143         5.60877 
        1.19395          9.8521         5.43924 
         1.2097         9.64847         5.27588 
        1.22537         9.41164         5.12004 
          1.241          9.2804         4.97099 
        1.25666          9.1271         4.82752 
        1.27241         8.87473         4.68907 
        1.28819         8.68216         4.55582 
        1.30392         8.58397         4.42817 
        1.31957         8.40091         4.30598 
        1.33529           8.254         4.18798 
        1.35108         8.03009         4.07394 
        1.36674          7.9956         3.96498 
         1.3824         7.71974         3.86012 
        1.39811         7.62648         3.75871 
        1.41389         7.50408         3.66057 
        1.42964         7.39127         3.56611 
        1.44531         7.25922         3.47545 
        1.46101         7.11221         3.38777 
        1.47667         6.98342         3.30338 
        1.49229         6.91302         3.22209 
        1.50793         6.73205         3.14346 
        1.52367         6.67131         3.06696 
        1.53953         6.53898         2.99249 
        1.55526          6.4309          2.9211 
        1.57092           6.383         2.85234 
        1.58662         6.22407         2.78563 
        1.60235         6.15463         2.72094 
        1.61809         6.04509         2.65827 
        1.63369         5.94054         2.59814 
        1.64941         5.87292         2.53944 
        1.66519          5.7978         2.48235 
        1.68085         5.68613         2.42742 
        1.69652         5.59068         2.37414 
        1.71228         5.52203         2.32217 
        1.72806         5.44797         2.27171 
        1.74368         5.34949         2.22326 
        1.75933         5.30535         2.17613 
        1.77505         5.23226         2.13015 
        1.79081         5.11682         2.08542 
         1.8065         5.08568         2.04217 
        1.82218         5.01484         2.00018 
        1.83797         4.96955         1.95909 
        1.85367         4.87627         1.91938 
        1.86928         4.83555         1.88102 
        1.88497         4.75288          1.8435 
        1.90073         4.67533         1.80686 
        1.91647         4.62607         1.77125 
        1.93218         4.58575         1.73668 
        1.94787         4.53506         1.70309 
        1.96363          4.4714         1.67025 
        1.97935         4.40861         1.63834 
        1.99499          4.3319         1.60746 
        2.01064         4.30088         1.57732 
         2.0264         4.24137         1.54777 
        2.04216         4.20657         1.51899 
        2.05781         4.14929         1.49113 
        2.07353         4.09731         1.46386 
        2.08928         4.06542         1.43723 
        2.10499         4.00852         1.41132 
        2.12065         3.97599         1.38613 
        2.13633         3.92305         1.36154 
        2.15211         3.87194         1.33738 
        2.16785         3.83349         1.31388 
        2.18349         3.79676          1.2911 
        2.19916          3.7257          1.2688 
        2.21489         3.71249         1.24696 
        2.23063         3.65546         1.22562 
         2.2463         3.62675         1.20487 
        2.26194         3.58115         1.18466 
        2.27765         3.56107         1.16481 
        2.29341          3.5094         1.14536 
        2.30914         3.47768          1.1264 
        2.32486         3.44816         1.10787 
        2.34061         3.41672         1.08974 
        2.35635         3.35797         1.07202 
        2.37203         3.35058         1.05476 
        2.38768         3.31045         1.03792 
        2.40339         3.27981         1.02139 
        2.41914         3.23586         1.00517 
        2.43483          3.2229        0.989369 
         2.4505          3.1693        0.973932 
        2.46622         3.16385        0.958771 
        2.48195         3.10935        0.943933 
        2.49759         3.08717        0.929488 
        2.51328         3.05929        0.915308 
        2.52906         3.04937        0.901334 
        2.54479         3.00177        0.887705 
        2.56049         2.98095        0.874384 
        2.57618         2.94624        0.861348 
        2.59189         2.94179        0.848558 
        2.60758         2.89904        0.836048 
        2.62325         2.87508        0.823806 
        2.63898          2.8377        0.811767 
        2.65468         2.81483        0.799994 
        2.67044         2.79686        0.788404 
        2.68618         2.77003         0.77707 
        2.70184         2.74264        0.766005 
        2.71755         2.72812        0.755127 
        2.73329         2.69918        0.744445 
        2.74897         2.68705        0.734004 
        2.76462         2.65347        0.723786 
        2.78034         2.63674        0.713721 
        2.79607         2.60289        0.703837 
        2.81179         2.59044        0.694151 
        2.82749         2.56586        0.684659 
        2.84321          2.5447        0.675333 
        2.85893         2.53059        0.666184 
        2.87462          2.5057        0.657221 
        2.89033         2.48121        0.648414 
        2.90605         2.46218        0.639761 
        2.92176          2.4409         0.63127 
        2.93747         2.42227        0.622938 
        2.95318         2.40478        0.614755 
        2.96891         2.39033        0.606715 
        2.98456          2.3687        0.598854 
        3.00023         2.35037        0.591121 
        3.01596         2.33428        0.583501 
        3.03164         2.31364        0.576037 
        3.04738         2.29471        0.568681 
         3.0631          2.2747        0.561457 
        3.07883         2.26378        0.554358 
        3.09456         2.24788        0.547382 
        3.11026         2.22648        0.540538 
        3.12596         2.21134        0.533811 
        3.14163         2.19139        0.527215 
        3.15734          2.1839        0.520714 
        3.17308         2.16064        0.514307 
        3.18879          2.1555        0.508026 
        3.20447         2.13895        0.501859 
         3.2202          2.1193        0.495775 
         3.2359         2.10359        0.489803 
        3.25157          2.0921        0.483943 
        3.26729         2.06744        0.478162 
        3.28304         2.06681        0.472464 
        3.29877         2.04258        0.466866 
        3.31446         2.02626         0.46137 
        3.33014         2.02223        0.455969 
        3.34585           2.007        0.450645 
        3.36158         1.99051        0.445399 
        3.37727          1.9773        0.440252 
        3.39294         1.95823        0.435192 
        3.40867         1.94209        0.430192 
        3.42439         1.93666        0.425275 
        3.44008         1.92615        0.420443 
        3.45578          1.9175        0.415683 
        3.47153         1.89795        0.410986 
        3.48724         1.88566         0.40637 
        3.50292         1.87607        0.401836 
        3.51859         1.86548        0.397373 
        3.53431          1.8495        0.392964 
        3.55007         1.83756        0.388611 
        3.56577         1.82722        0.384341 
        3.58146         1.81854        0.380138 
        3.59719         1.80677        0.375987 
        3.61292         1.79736          0.3719 
        3.62859         1.78136        0.367889 
        3.64429         1.77119        0.363929 
        3.66003         1.75715        0.360016 
        3.67578         1.74758        0.356161 
        3.69146         1.74016        0.352378 
        3.70712         1.72048        0.348656 
        3.72284         1.71702        0.344974 
        3.73853         1.70418        0.341352 
        3.75422         1.69757         0.33778 
        3.76993         1.68689        0.334257 
        3.78564         1.67494        0.330785 
        3.80137         1.65872        0.327357 
        3.81707         1.65468        0.323984 
        3.83279          1.6431        0.320657 
        3.84853         1.63746        0.317371 
        3.86424         1.62201        0.314137 
        3.87992         1.61989        0.310953 
        3.89561         1.60519        0.307813 
        3.91134         1.59863         0.30471 
        3.92704         1.58698        0.301653 
        3.94273          1.5825        0.298641 
        3.95845         1.56943        0.295665 
        3.97418         1.56237        0.292729 
        3.98988         1.54931        0.289837 
        4.00554           1.538        0.286991 
        4.02125         1.53545        0.284176 
        4.03698         1.52068        0.281394 
        4.05268         1.50991        0.278655 
        4.06839         1.49907        0.275951 
         4.0841         1.49247        0.273284 
        4.09983         1.48073        0.270648 
        4.11555         1.47111        0.268048 
        4.13124         1.46423        0.265489 
        4.14693         1.45059        0.262962 
        4.16266         1.44077        0.260461 
        4.17839         1.43246        0.257995 
        4.19408         1.42558        0.255566 
        4.20977         1.41626        0.253167 
        4.22551         1.40691        0.250794 
        4.24123         1.40133        0.248453 
        4.25691         1.38714        0.246148 
        4.27259         1.38429        0.243872 
        4.28831         1.37274         0.24162 
        4.30404         1.36921        0.239395 
        4.31974         1.35367        0.237202 
        4.33543         1.35086        0.235038 
        4.35116         1.34458        0.232896 
        4.36688          1.3315        0.230781 
        4.38255         1.32302        0.228701 
        4.39825         1.31765        0.226641 
        4.41398         1.31283        0.224603 
         4.4297         1.30623        0.222592 
        4.44541         1.29815        0.220606 
        4.46111         1.29256        0.218646 
        4.47683          1.2885        0.216708 
        4.49251         1.27838        0.214797 
        4.50819         1.27537         0.21291 
         4.5239         1.26763        0.211043 
        4.53962         1.26133        0.209196 
        4.55535         1.25209        0.207371 
        4.57106         1.24973        0.205569 
        4.58678         1.24222        0.203789 
         4.6025         1.23695        0.202029 
        4.61821         1.23105        0.200291 
        4.63391         1.22284        0.198575 
         4.6496         1.21797         0.19688 
        4.66532          1.2129        0.195202 
        4.68103         1.20869        0.193544 
        4.69673         1.20334        0.191907 
        4.71241         1.19749        0.190291 
        4.72811         1.19358        0.188691 
        4.74384          1.1848        0.187107 
        4.75955         1.18094        0.185543 
        4.77525         1.17508        0.183999 
        4.79096          1.1699         0.18247 
        4.80669         1.16525        0.180957 
         4.8224         1.16225        0.179464 
        4.83809          1.1574        0.177989 
        4.85379         1.15171        0.176529 
         4.8695         1.14806        0.175085 
        4.88521         1.14126        0.173658 
        4.90093         1.13736        0.172246 
        4.91663         1.13618        0.170851 
        4.93234         1.12659         0.16947 
        4.94807         1.12221        0.168104 
        4.96377         1.11929        0.166755 
        4.97943         1.11583        0.165424 
        4.99514         1.11115        0.164103 
        5.01086         1.10691        0.162797 
        5.02654         1.10511        0.161507 
        5.04227         1.09685        0.160228 
          5.058         1.09471        0.158962 
        5.07371         1.09181        0.157713 
        5.08942         1.08384        0.156476 
        5.10513         1.08249        0.155253 
        5.12084         1.07946        0.154042 
        5.13656         1.07771        0.152845 
        5.15225         1.07364        0.151662 
        5.16796         1.06894        0.150489 
        5.18369         1.06577        0.149328 
         5.1994         1.06028        0.148182 
        5.21509         1.05808        0.147048 
        5.23079         1.05619        0.145925 
        5.24649         1.05412        0.144815 
        5.26217         1.04359        0.143717 
        5.27788         1.04405        0.142628 
        5.29359         1.04178        0.141551 
        5.30933         1.03632        0.140483 
        5.32504         1.03573        0.139429 
        5.34073         1.03144        0.138386 
        5.35646         1.02797        0.137351 
        5.37218         1.02569        0.136327 
        5.38789         1.02381        0.135316 
        5.40357         1.01593        0.134315 
        5.41929         1.01705        0.133323 
        5.43502         1.01222         0.13234 
         5.4507         1.00944         0.13137 
        5.46639         1.00628        0.130409 
        5.48212         1.00443        0.129455 
        5.49786         1.00143         0.12851 
        5.51353        0.998754        0.127579 
        5.52921        0.994802        0.126657 
        5.54495        0.992712        0.125741 
        5.56066        0.990914        0.124834 
        5.57637        0.990827        0.123937 
        5.59207        0.985398         0.12305 
        5.60778        0.980464        0.122171 
        5.62346        0.981339        0.121301 
        5.63916         0.97809        0.120439 
        5.65487        0.976816        0.119586 
         5.6706        0.974826        0.118739 
        5.68633         0.97067          0.1179 
        5.70203        0.970191        0.117072 
        5.71773        0.967595        0.116251 
        5.73344        0.963423        0.115438 
        5.74916        0.961698        0.114631 
        5.76486         0.95945        0.113834 
        5.78054        0.956699        0.113045 
        5.79626         0.95479        0.112262 
          5.812        0.952328        0.111485 
         5.8277        0.950843        0.110718 
        5.84339        0.947533        0.109958 
        5.85911        0.945952        0.109204 
        5.87484        0.944412        0.108457 
        5.89053        0.941034        0.107718 
        5.90623        0.938752        0.106986 
        5.92195        0.937153        0.106259 
        5.93767        0.934068         0.10554 
        5.95336        0.932509        0.104828 
        5.96905        0.929602        0.104124 
        5.98476        0.926968        0.103424 
        6.00048        0.926366        0.102731 
        6.01617        0.922877        0.102046 
        6.03185        0.920816        0.101367 
        6.04756        0.920322        0.100693 
        6.06331        0.917381        0.100023 
        6.07903        0.916233       0.0993614 
        6.09473        0.913026       0.0987061 
        6.11044        0.913489        0.098056 
        6.12616        0.908485        0.097412 
        6.14186        0.907488       0.0967743 
        6.15755         0.90752       0.0961424 
        6.17326        0.905462       0.0955156 
        6.18898        0.902968       0.0948941 
        6.20467        0.900487       0.0942793 
        6.22036        0.896879       0.0936699 
         6.2361        0.897045       0.0930643 
         6.2518        0.894293        0.092465 
        6.26748        0.892737       0.0918724 
        6.28319        0.889609       0.0912832 
        6.29893        0.888998       0.0906988 
        6.31463        0.886906       0.0901204 
        6.33033        0.886051       0.0895472 
        6.34604        0.883692       0.0889787 
        6.36177        0.880888       0.0884145 
        6.37747        0.882203       0.0878563 
