# k  (h/Mpc)    Pcb(k)  (Mpc/h)^3    Pcb_linear(k) (Mpc/h)^3   ShotnoiseSubtracted = true
      0.0200456         21211.4         21544.3 
      0.0350414         17343.7         16892.9 
      0.0492313         12979.4         13384.4 
      0.0637834         10251.7         10883.6 
      0.0800726         7744.79         8221.54 
       0.096163         6592.95         6466.77 
       0.111083         5620.69         5474.11 
       0.126058         4473.78         4550.54 
       0.142273         3847.67         3702.95 
       0.158546         3273.93         3154.48 
        0.17375         2971.72          2744.5 
       0.188953         2779.96         2359.44 
       0.204907         2392.14         2042.43 
       0.220756         2176.13         1805.18 
        0.23588         1957.95         1603.39 
         0.2514         1777.01         1420.73 
       0.267535         1707.53         1267.05 
       0.283568         1531.09         1138.56 
       0.299022         1464.51         1028.15 
       0.314451         1521.43          932.18 
       0.330372          1356.8         847.579 
       0.346141         1247.65         773.741 
       0.361624          1197.3         709.149 
       0.377134         1148.48         652.023 
       0.392932         1098.19         600.547 
       0.408854         1051.16         554.133 
       0.424564         1031.36         513.022 
       0.440253         961.182         476.225 
       0.455999         920.478         442.953 
       0.471626           930.4         413.029 
        0.48727         882.496         385.834 
       0.502856         848.814          361.19 
       0.518488         823.733         338.636 
       0.534347         790.675         317.714 
       0.550082         756.722         298.704 
       0.565732         744.214         281.346 
       0.581496         726.928         265.257 
       0.597222         713.602          250.46 
       0.612804           697.7         236.918 
       0.628434         668.569         224.344 
       0.644267         650.462         212.539 
       0.660051         642.812          201.62 
       0.675724         630.327         191.539 
       0.691403         609.614         182.146 
       0.707174         592.327         173.336 
       0.722871         583.887         165.148 
        0.73838         573.546         157.579 
       0.754018         560.195          150.43 
       0.769845         551.254         143.647 
        0.78569         538.438         137.278 
       0.801365         521.602         131.358 
       0.817031         516.152         125.792 
       0.832809          508.26         120.514 
       0.848511         498.482         115.563 
       0.864097         490.541         110.925 
       0.879701         488.472         106.538 
       0.895507         468.868         102.338 
       0.911279         464.106         98.3729 
        0.92691         456.247         94.6519 
       0.942635         451.233         91.1036 
       0.958396         437.779         87.7304 
       0.974128         431.433          84.535 
       0.989692         418.701          81.531 
        1.00528          415.72         78.6693 
        1.02113         406.979         75.9008 
        1.03692         401.222         73.2764 
        1.05264         394.141         70.7888 
        1.06832         386.146         68.4212 
        1.08405          384.31          66.156 
        1.09979         375.316         63.9925 
        1.11537         365.704         61.9477 
        1.13105         362.373         59.9804 
        1.14679         355.474         58.0914 
        1.16256         351.993         56.2803 
        1.17828         346.729         54.5527 
        1.19395         338.035         52.9038 
         1.2097         335.241         51.3149 
        1.22537         328.068         49.7992 
          1.241         323.587         48.3495 
        1.25666         318.681         46.9541 
        1.27241         314.209         45.6074 
        1.28819         307.513         44.3114 
        1.30392         306.153         43.0698 
        1.31957         298.408         41.8814 
        1.33529         294.759         40.7336 
        1.35108         292.231         39.6245 
        1.36674         285.123         38.5647 
         1.3824         281.573         37.5447 
        1.39811         277.651         36.5584 
        1.41389         271.738         35.6039 
        1.42964         267.987         34.6851 
        1.44531         263.258         33.8034 
        1.46101         259.036         32.9505 
        1.47667         256.499         32.1297 
        1.49229         252.315         31.3391 
        1.50793          248.43         30.5743 
        1.52367         244.462         29.8302 
        1.53953         239.705         29.1059 
        1.55526           237.5         28.4116 
        1.57092         234.306         27.7428 
        1.58662         229.691          27.094 
        1.60235         226.747         26.4647 
        1.61809         224.813         25.8552 
        1.63369         220.468         25.2703 
        1.64941          217.34         24.6994 
        1.66519         213.743         24.1441 
        1.68085         209.844         23.6099 
        1.69652         207.882         23.0917 
        1.71228          204.62         22.5861 
        1.72806         201.482         22.0954 
        1.74368         199.411         21.6241 
        1.75933         197.517         21.1658 
        1.77505         194.059         20.7185 
        1.79081         191.426         20.2835 
         1.8065         189.234         19.8628 
        1.82218          184.95         19.4544 
        1.83797         183.402         19.0548 
        1.85367         180.642         18.6686 
        1.86928         177.575         18.2954 
        1.88497         175.631         17.9304 
        1.90073         173.825         17.5741 
        1.91647         170.521         17.2278 
        1.93218          168.64         16.8915 
        1.94787         165.363         16.5648 
        1.96363         164.639         16.2454 
        1.97935         162.359         15.9351 
        1.99499         160.198         15.6346 
        2.01064         156.641         15.3415 
         2.0264         155.658         15.0541 
        2.04216         153.361         14.7742 
        2.05781         150.845         14.5032 
        2.07353         150.155          14.238 
        2.08928         147.848         13.9789 
        2.10499         145.711          13.727 
        2.12065         143.668          13.482 
        2.13633         141.622         13.2428 
        2.15211         139.719         13.0078 
        2.16785         138.287         12.7793 
        2.18349         136.468         12.5576 
        2.19916         134.231         12.3408 
        2.21489         133.071         12.1283 
        2.23063         131.314         11.9208 
         2.2463         129.251          11.719 
        2.26194         127.634         11.5224 
        2.27765         125.788         11.3293 
        2.29341         124.838         11.1402 
        2.30914          123.35         10.9557 
        2.32486         120.971         10.7755 
        2.34061         119.412         10.5991 
        2.35635         118.794         10.4268 
        2.37203         117.038          10.259 
        2.38768         115.936         10.0952 
        2.40339         113.527         9.93433 
        2.41914         112.389         9.77664 
        2.43483         111.062         9.62292 
         2.4505         110.103         9.47278 
        2.46622         108.069         9.32532 
        2.48195         107.369           9.181 
        2.49759         105.369          9.0405 
        2.51328         104.434         8.90258 
        2.52906         103.268         8.76667 
        2.54479         101.966          8.6341 
        2.56049         100.648         8.50454 
        2.57618         99.3868         8.37774 
        2.59189         98.5739         8.25335 
        2.60758         97.1955         8.13168 
        2.62325         96.0842         8.01261 
        2.63898         95.0281         7.89551 
        2.65468         93.5474           7.781 
        2.67044         92.9554         7.66827 
        2.68618         91.4169         7.55803 
        2.70184         90.5484         7.45041 
        2.71755         89.4428         7.34461 
        2.73329         88.1531         7.24071 
        2.74897         87.3193         7.13916 
        2.76462         86.6846         7.03978 
        2.78034         85.4271         6.94188 
        2.79607         84.2717         6.84574 
        2.81179         83.5998         6.75154 
        2.82749         82.6327         6.65921 
        2.84321         81.5071         6.56851 
        2.85893         80.2666         6.47952 
        2.87462         79.6514         6.39234 
        2.89033         78.7061         6.30668 
        2.90605         77.7268         6.22252 
        2.92176         77.0045         6.13994 
        2.93747          76.049          6.0589 
        2.95318         75.1806          5.9793 
        2.96891         74.4466          5.9011 
        2.98456         73.5736         5.82465 
        3.00023         72.8534         5.74943 
        3.01596          72.154         5.67532 
        3.03164         71.4378         5.60272 
        3.04738         70.7488         5.53118 
         3.0631         69.7642         5.46091 
        3.07883         69.2266         5.39186 
        3.09456         68.2813         5.32402 
        3.11026         67.5578         5.25745 
        3.12596         66.8376         5.19202 
        3.14163         66.1231         5.12786 
        3.15734         65.3971         5.06463 
        3.17308          64.762         5.00232 
        3.18879         64.0586         4.94123 
        3.20447         63.3433         4.88124 
         3.2202         62.4717         4.82207 
         3.2359         61.9797         4.76398 
        3.25157         61.4157         4.70699 
        3.26729         60.6824         4.65076 
        3.28304         60.0353         4.59533 
        3.29877         59.3197         4.54088 
        3.31446         58.6248         4.48744 
        3.33014          58.045          4.4349 
        3.34585         57.5702         4.38312 
        3.36158         57.0522         4.33209 
        3.37727         56.3837         4.28203 
        3.39294         55.8862         4.23281 
        3.40867         55.1784         4.18419 
        3.42439         54.6753         4.13636 
        3.44008         54.0543         4.08937 
        3.45578         53.5206         4.04307 
        3.47153         53.0751         3.99739 
        3.48724         52.6842         3.95249 
        3.50292         51.9723         3.90839 
        3.51859         51.5445         3.86498 
        3.53431         50.8996          3.8221 
        3.55007         50.4657         3.77976 
        3.56577         49.8286         3.73823 
        3.58146         49.4633         3.69734 
        3.59719         48.9758         3.65697 
        3.61292         48.4579         3.61722 
        3.62859         47.8944          3.5782 
        3.64429         47.6004         3.53969 
        3.66003         47.0451         3.50163 
        3.67578         46.4801         3.46414 
        3.69146         46.1536         3.42734 
        3.70712         45.7424         3.39114 
        3.72284         45.2894         3.35533 
        3.73853         44.8928          3.3201 
        3.75422         44.4244         3.28536 
        3.76993         44.0719         3.25109 
        3.78564         43.6744         3.21732 
        3.80137         43.1038         3.18398 
        3.81707         42.7612         3.15118 
        3.83279         42.4139         3.11881 
        3.84853         41.9359         3.08685 
        3.86424         41.5117          3.0554 
        3.87992         41.1407         3.02443 
        3.89561         40.8519         2.99389 
        3.91134         40.3385         2.96371 
        3.92704         40.0598         2.93397 
        3.94273         39.5327         2.90468 
        3.95845         39.2662         2.87573 
        3.97418         38.8861         2.84718 
        3.98988         38.5557         2.81904 
        4.00554         38.0887         2.79137 
        4.02125         37.8896         2.76398 
        4.03698          37.437         2.73693 
        4.05268         37.1541         2.71029 
        4.06839         36.8059         2.68399 
         4.0841          36.494         2.65805 
        4.09983         36.1556         2.63241 
        4.11555         35.8067         2.60712 
        4.13124         35.4121         2.58224 
        4.14693         35.1716         2.55765 
        4.16266         34.8475         2.53333 
        4.17839         34.4266         2.50934 
        4.19408         34.1888         2.48572 
        4.20977         33.9255         2.46239 
        4.22551         33.5618          2.4393 
        4.24123         33.3132         2.41653 
        4.25691          33.018         2.39412 
        4.27259          32.661         2.37198 
        4.28831         32.4015         2.35008 
        4.30404         32.1099         2.32843 
        4.31974         31.8999          2.3071 
        4.33543         31.5525         2.28606 
        4.35116          31.245         2.26522 
        4.36688         31.0094         2.24465 
        4.38255         30.7972         2.22442 
        4.39825         30.5552         2.20438 
        4.41398         30.2676         2.18456 
         4.4297         29.9774           2.165 
        4.44541         29.7338         2.14568 
        4.46111         29.4788         2.12662 
        4.47683         29.2618         2.10777 
        4.49251         28.9994         2.08919 
        4.50819         28.7443         2.07083 
         4.5239          28.432         2.05268 
        4.53962         28.2064         2.03471 
        4.55535         27.9907         2.01695 
        4.57106         27.7658         1.99943 
        4.58678          27.525         1.98212 
         4.6025         27.2959           1.965 
        4.61821         27.0765         1.94809 
        4.63391         26.8476          1.9314 
         4.6496         26.5958         1.91492 
        4.66532         26.4261          1.8986 
        4.68103          26.127         1.88247 
        4.69673         25.9881         1.86655 
        4.71241         25.7323         1.85083 
        4.72811         25.5552         1.83527 
        4.74384         25.3837         1.81986 
        4.75955         25.1914         1.80465 
        4.77525         24.9267         1.78963 
        4.79096         24.6932         1.77476 
        4.80669         24.4841         1.76005 
         4.8224         24.3492         1.74552 
        4.83809         24.1251         1.73118 
        4.85379         23.9904         1.71698 
         4.8695          23.766         1.70293 
        4.88521          23.497         1.68905 
        4.90093         23.3867         1.67532 
        4.91663         23.2311         1.66175 
        4.93234         22.9614         1.64832 
        4.94807         22.7755         1.63503 
        4.96377         22.6213         1.62191 
        4.97943         22.4733         1.60896 
        4.99514         22.2703         1.59612 
        5.01086         22.1374         1.58341 
        5.02654         21.9314         1.57087 
        5.04227         21.7477         1.55843 
          5.058         21.5801         1.54612 
        5.07371         21.4337         1.53397 
        5.08942         21.2569         1.52194 
        5.10513         21.0712         1.51004 
        5.12084         20.8966         1.49827 
        5.13656         20.7555         1.48662 
        5.15225         20.6052         1.47511 
        5.16796         20.4229         1.46371 
        5.18369         20.2416         1.45242 
         5.1994         20.1002         1.44126 
        5.21509         19.8951         1.43024 
        5.23079         19.8181         1.41932 
        5.24649         19.6305         1.40852 
        5.26217          19.479         1.39783 
        5.27788         19.3687         1.38725 
        5.29359         19.1766         1.37677 
        5.30933         19.0478         1.36639 
        5.32504         18.9138         1.35613 
        5.34073         18.7589         1.34598 
        5.35646          18.638         1.33592 
        5.37218         18.4995         1.32596 
        5.38789         18.3471         1.31612 
        5.40357          18.193         1.30639 
        5.41929         18.0918         1.29674 
        5.43502         17.9545         1.28718 
         5.4507         17.7824         1.27774 
        5.46639         17.6676          1.2684 
        5.48212         17.5549         1.25912 
        5.49786         17.4297         1.24993 
        5.51353         17.2468         1.24088 
        5.52921         17.1631          1.2319 
        5.54495         17.0414         1.22299 
        5.56066          16.886         1.21418 
        5.57637         16.7498         1.20545 
        5.59207         16.6523         1.19682 
        5.60778         16.5389         1.18827 
        5.62346         16.4158         1.17981 
        5.63916         16.2849         1.17143 
        5.65487         16.1497         1.16313 
         5.6706         16.0549         1.15489 
        5.68633         15.9543         1.14674 
        5.70203         15.8181         1.13868 
        5.71773         15.6961         1.13069 
        5.73344         15.5975         1.12278 
        5.74916         15.4822         1.11494 
        5.76486         15.4013         1.10718 
        5.78054         15.2682         1.09951 
        5.79626         15.1501         1.09189 
          5.812         15.0399         1.08434 
         5.8277          14.942         1.07688 
        5.84339         14.8107         1.06949 
        5.85911         14.7363         1.06215 
        5.87484         14.5951         1.05488 
        5.89053         14.5131          1.0477 
        5.90623         14.4154         1.04058 
        5.92195         14.2879         1.03351 
        5.93767          14.237         1.02652 
        5.95336         14.0887          1.0196 
        5.96905          14.018         1.01274 
        5.98476         13.9021         1.00594 
        6.00048         13.8339        0.999199 
        6.01617         13.7524        0.992529 
        6.03185         13.6201        0.985928 
        6.04756         13.5586        0.979371 
        6.06331         13.4404         0.97286 
        6.07903         13.3599        0.966421 
        6.09473         13.2383        0.960047 
        6.11044         13.1834        0.953725 
        6.12616         13.0632         0.94746 
        6.14186         12.9823        0.941258 
        6.15755         12.8966        0.935112 
        6.17326         12.8056        0.929016 
        6.18898         12.6813        0.922971 
        6.20467         12.6426        0.916991 
        6.22036          12.548        0.911064 
         6.2361         12.4429        0.905173 
         6.2518         12.3714        0.899345 
        6.26748         12.2748         0.89358 
        6.28319         12.2047         0.88785 
        6.29893         12.1347        0.882165 
        6.31463         12.0339         0.87654 
        6.33033         11.9687        0.870965 
        6.34604         11.8818        0.865435 
        6.36177         11.8142        0.859948 
        6.37747         11.7362        0.854519 
