# k  (h/Mpc)    Pcb(k)  (Mpc/h)^3    Pcb_linear(k) (Mpc/h)^3   ShotnoiseSubtracted = true
      0.0200456          2191.2         2215.05 
      0.0350414         1760.17         1736.82 
      0.0492313         1373.58          1376.1 
      0.0637834         1101.21         1118.99 
      0.0800726         835.518         845.288 
       0.096163         675.077         664.873 
       0.111083         574.185         562.814 
       0.126058         465.718         467.858 
       0.142273         381.307         380.714 
       0.158546         327.647         324.324 
        0.17375         288.936         282.173 
       0.188953         250.008         242.582 
       0.204907         210.139          209.99 
       0.220756         190.851         185.598 
        0.23588         169.729         164.851 
         0.2514         151.113         146.071 
       0.267535          138.68         130.271 
       0.283568         123.192         117.059 
       0.299022         113.586         105.708 
       0.314451          106.84         95.8409 
       0.330372         94.8329         87.1428 
       0.346141         87.1264         79.5512 
       0.361624          80.513         72.9103 
       0.377134         73.6736          67.037 
       0.392932         71.1646         61.7445 
       0.408854         65.0771         56.9725 
       0.424564          62.242         52.7458 
       0.440253         56.8417         48.9625 
       0.455999          52.065         45.5417 
       0.471626         49.2794         42.4651 
        0.48727         47.9309         39.6691 
       0.502856         44.6928         37.1354 
       0.518488         41.9012         34.8165 
       0.534347          39.491         32.6653 
       0.550082          37.983         30.7109 
       0.565732         36.5564         28.9262 
       0.581496         34.3471          27.272 
       0.597222         32.4846         25.7508 
       0.612804         31.0361         24.3584 
       0.628434          30.392         23.0656 
       0.644267         28.7919          21.852 
       0.660051         27.3502         20.7294 
       0.675724         26.1123         19.6929 
       0.691403          25.568         18.7271 
       0.707174         24.5655         17.8213 
       0.722871         23.7399         16.9794 
        0.73838         22.4745         16.2013 
       0.754018         21.4037         15.4662 
       0.769845         20.8226         14.7689 
        0.78569         20.1695         14.1141 
       0.801365         19.4208         13.5054 
       0.817031         18.7595         12.9332 
       0.832809         18.1651         12.3905 
       0.848511         17.6208         11.8815 
       0.864097         17.0373         11.4047 
       0.879701          16.745         10.9536 
       0.895507         16.1148         10.5217 
       0.911279           15.47         10.1141 
        0.92691         15.1515         9.73152 
       0.942635         14.7834         9.36671 
       0.958396         14.2586          9.0199 
       0.974128         13.9215         8.69136 
       0.989692         13.3254         8.38251 
        1.00528         13.2313         8.08829 
        1.02113         12.7808         7.80365 
        1.03692         12.4846         7.53383 
        1.05264         12.1933         7.27807 
        1.06832         11.9177         7.03464 
        1.08405          11.612         6.80175 
        1.09979         11.3239         6.57932 
        1.11537         11.0475         6.36908 
        1.13105         10.8344         6.16681 
        1.14679         10.6013         5.97259 
        1.16256         10.3519         5.78639 
        1.17828         10.1445         5.60877 
        1.19395         9.93297         5.43924 
         1.2097         9.61989         5.27588 
        1.22537         9.45343         5.12004 
          1.241         9.22512         4.97099 
        1.25666         9.18276         4.82752 
        1.27241         8.97509         4.68907 
        1.28819         8.62715         4.55582 
        1.30392         8.55167         4.42817 
        1.31957         8.37865         4.30598 
        1.33529         8.25414         4.18798 
        1.35108         8.06773         4.07394 
        1.36674         7.88342         3.96498 
         1.3824         7.80412         3.86012 
        1.39811         7.64619         3.75871 
        1.41389         7.45923         3.66057 
        1.42964         7.38116         3.56611 
        1.44531         7.23125         3.47545 
        1.46101         7.14154         3.38777 
        1.47667         6.99153         3.30338 
        1.49229         6.82856         3.22209 
        1.50793         6.74129         3.14346 
        1.52367         6.62296         3.06696 
        1.53953         6.49718         2.99249 
        1.55526         6.46084          2.9211 
        1.57092         6.31953         2.85234 
        1.58662         6.22797         2.78563 
        1.60235         6.12771         2.72094 
        1.61809         6.04845         2.65827 
        1.63369         5.93076         2.59814 
        1.64941         5.84178         2.53944 
        1.66519         5.76429         2.48235 
        1.68085         5.66863         2.42742 
        1.69652         5.60786         2.37414 
        1.71228         5.54197         2.32217 
        1.72806         5.43308         2.27171 
        1.74368         5.38282         2.22326 
        1.75933          5.3003         2.17613 
        1.77505          5.1953         2.13015 
        1.79081         5.16758         2.08542 
         1.8065         5.09791         2.04217 
        1.82218         5.01402         2.00018 
        1.83797         4.92546         1.95909 
        1.85367          4.8631         1.91938 
        1.86928         4.83899         1.88102 
        1.88497         4.72876          1.8435 
        1.90073         4.68714         1.80686 
        1.91647         4.62373         1.77125 
        1.93218         4.56854         1.73668 
        1.94787         4.51119         1.70309 
        1.96363         4.45899         1.67025 
        1.97935         4.41056         1.63834 
        1.99499         4.35691         1.60746 
        2.01064         4.31242         1.57732 
         2.0264         4.24419         1.54777 
        2.04216         4.20137         1.51899 
        2.05781         4.14527         1.49113 
        2.07353         4.11917         1.46386 
        2.08928          4.0377         1.43723 
        2.10499         4.00224         1.41132 
        2.12065         4.00467         1.38613 
        2.13633         3.93301         1.36154 
        2.15211         3.87048         1.33738 
        2.16785         3.83187         1.31388 
        2.18349         3.79826          1.2911 
        2.19916         3.76388          1.2688 
        2.21489         3.71825         1.24696 
        2.23063         3.66842         1.22562 
         2.2463         3.62734         1.20487 
        2.26194          3.5903         1.18466 
        2.27765         3.52541         1.16481 
        2.29341          3.5019         1.14536 
        2.30914         3.46544          1.1264 
        2.32486         3.44601         1.10787 
        2.34061         3.41022         1.08974 
        2.35635         3.37799         1.07202 
        2.37203         3.35612         1.05476 
        2.38768          3.3248         1.03792 
        2.40339         3.26934         1.02139 
        2.41914         3.23761         1.00517 
        2.43483         3.20389        0.989369 
         2.4505         3.18438        0.973932 
        2.46622         3.14713        0.958771 
        2.48195         3.12524        0.943933 
        2.49759         3.08778        0.929488 
        2.51328         3.06161        0.915308 
        2.52906         3.03435        0.901334 
        2.54479          3.0022        0.887705 
        2.56049         2.97584        0.874384 
        2.57618         2.95049        0.861348 
        2.59189         2.94447        0.848558 
        2.60758         2.90491        0.836048 
        2.62325         2.86333        0.823806 
        2.63898         2.83751        0.811767 
        2.65468         2.81219        0.799994 
        2.67044         2.81236        0.788404 
        2.68618         2.77982         0.77707 
        2.70184         2.74906        0.766005 
        2.71755         2.72154        0.755127 
        2.73329         2.69308        0.744445 
        2.74897         2.67358        0.734004 
        2.76462         2.64681        0.723786 
        2.78034         2.64096        0.713721 
        2.79607         2.60564        0.703837 
        2.81179         2.58438        0.694151 
        2.82749         2.56157        0.684659 
        2.84321         2.54506        0.675333 
        2.85893          2.5136        0.666184 
        2.87462         2.50934        0.657221 
        2.89033         2.48421        0.648414 
        2.90605         2.46925        0.639761 
        2.92176         2.44518         0.63127 
        2.93747          2.4207        0.622938 
        2.95318         2.40415        0.614755 
        2.96891           2.396        0.606715 
        2.98456         2.37612        0.598854 
        3.00023         2.35557        0.591121 
        3.01596         2.32775        0.583501 
        3.03164         2.31162        0.576037 
        3.04738         2.30074        0.568681 
         3.0631         2.28182        0.561457 
        3.07883         2.26536        0.554358 
        3.09456         2.23956        0.547382 
        3.11026         2.23245        0.540538 
        3.12596         2.21121        0.533811 
        3.14163         2.20138        0.527215 
        3.15734         2.18115        0.520714 
        3.17308         2.17127        0.514307 
        3.18879         2.15264        0.508026 
        3.20447         2.12683        0.501859 
         3.2202         2.13016        0.495775 
         3.2359         2.10578        0.489803 
        3.25157         2.08862        0.483943 
        3.26729         2.07235        0.478162 
        3.28304         2.05722        0.472464 
        3.29877         2.04342        0.466866 
        3.31446         2.03406         0.46137 
        3.33014         2.01126        0.455969 
        3.34585         2.00571        0.450645 
        3.36158         1.98627        0.445399 
        3.37727         1.98132        0.440252 
        3.39294         1.96165        0.435192 
        3.40867         1.95555        0.430192 
        3.42439         1.94083        0.425275 
        3.44008         1.92458        0.420443 
        3.45578         1.91151        0.415683 
        3.47153         1.89991        0.410986 
        3.48724         1.88803         0.40637 
        3.50292         1.86948        0.401836 
        3.51859         1.86805        0.397373 
        3.53431         1.84691        0.392964 
        3.55007         1.84236        0.388611 
        3.56577         1.82738        0.384341 
        3.58146         1.81991        0.380138 
        3.59719         1.80478        0.375987 
        3.61292         1.79555          0.3719 
        3.62859         1.78094        0.367889 
        3.64429         1.76987        0.363929 
        3.66003         1.76056        0.360016 
        3.67578         1.74842        0.356161 
        3.69146         1.73518        0.352378 
        3.70712         1.72469        0.348656 
        3.72284         1.71558        0.344974 
        3.73853         1.70832        0.341352 
        3.75422         1.69371         0.33778 
        3.76993         1.68365        0.334257 
        3.78564         1.67256        0.330785 
        3.80137         1.66314        0.327357 
        3.81707         1.65243        0.323984 
        3.83279         1.64954        0.320657 
        3.84853         1.63536        0.317371 
        3.86424         1.62101        0.314137 
        3.87992          1.6146        0.310953 
        3.89561          1.5997        0.307813 
        3.91134         1.59719         0.30471 
        3.92704         1.58589        0.301653 
        3.94273         1.57614        0.298641 
        3.95845         1.56466        0.295665 
        3.97418         1.56059        0.292729 
        3.98988          1.5509        0.289837 
        4.00554         1.53802        0.286991 
        4.02125         1.53124        0.284176 
        4.03698          1.5192        0.281394 
        4.05268         1.51092        0.278655 
        4.06839         1.49887        0.275951 
         4.0841         1.48765        0.273284 
        4.09983         1.47759        0.270648 
        4.11555         1.47076        0.268048 
        4.13124          1.4566        0.265489 
        4.14693         1.44993        0.262962 
        4.16266         1.44224        0.260461 
        4.17839         1.43285        0.257995 
        4.19408         1.42659        0.255566 
        4.20977         1.41676        0.253167 
        4.22551         1.40927        0.250794 
        4.24123          1.3972        0.248453 
        4.25691         1.38803        0.246148 
        4.27259         1.37898        0.243872 
        4.28831         1.37692         0.24162 
        4.30404         1.36476        0.239395 
        4.31974         1.35619        0.237202 
        4.33543          1.3508        0.235038 
        4.35116          1.3429        0.232896 
        4.36688         1.33295        0.230781 
        4.38255         1.32606        0.228701 
        4.39825         1.32151        0.226641 
        4.41398         1.31209        0.224603 
         4.4297         1.30293        0.222592 
        4.44541         1.29667        0.220606 
        4.46111         1.28608        0.218646 
        4.47683         1.28387        0.216708 
        4.49251         1.27834        0.214797 
        4.50819         1.26982         0.21291 
         4.5239          1.2645        0.211043 
        4.53962         1.25498        0.209196 
        4.55535         1.25175        0.207371 
        4.57106         1.24351        0.205569 
        4.58678         1.24176        0.203789 
         4.6025         1.23123        0.202029 
        4.61821         1.22949        0.200291 
        4.63391           1.223        0.198575 
         4.6496         1.21401         0.19688 
        4.66532         1.20905        0.195202 
        4.68103         1.20429        0.193544 
        4.69673         1.20022        0.191907 
        4.71241         1.19297        0.190291 
        4.72811         1.18914        0.188691 
        4.74384         1.18379        0.187107 
        4.75955         1.18024        0.185543 
        4.77525         1.17067        0.183999 
        4.79096          1.1658         0.18247 
        4.80669         1.16438        0.180957 
         4.8224         1.15728        0.179464 
        4.83809         1.15304        0.177989 
        4.85379         1.14823        0.176529 
         4.8695         1.14302        0.175085 
        4.88521            1.14        0.173658 
        4.90093         1.13385        0.172246 
        4.91663         1.12982        0.170851 
        4.93234          1.1273         0.16947 
        4.94807         1.12008        0.168104 
        4.96377         1.11733        0.166755 
        4.97943         1.11587        0.165424 
        4.99514         1.11158        0.164103 
        5.01086         1.10358        0.162797 
        5.02654         1.09987        0.161507 
        5.04227         1.09714        0.160228 
          5.058          1.0936        0.158962 
        5.07371         1.08796        0.157713 
        5.08942         1.08476        0.156476 
        5.10513           1.085        0.155253 
        5.12084         1.07707        0.154042 
        5.13656          1.0722        0.152845 
        5.15225         1.06748        0.151662 
        5.16796         1.06555        0.150489 
        5.18369         1.06316        0.149328 
         5.1994         1.06164        0.148182 
        5.21509         1.05412        0.147048 
        5.23079         1.05372        0.145925 
        5.24649         1.04768        0.144815 
        5.26217         1.04576        0.143717 
        5.27788         1.04149        0.142628 
        5.29359         1.03848        0.141551 
        5.30933         1.03573        0.140483 
        5.32504          1.0315        0.139429 
        5.34073         1.02873        0.138386 
        5.35646          1.0255        0.137351 
        5.37218         1.02298        0.136327 
        5.38789         1.02167        0.135316 
        5.40357         1.01918        0.134315 
        5.41929         1.01515        0.133323 
        5.43502         1.01223         0.13234 
         5.4507         1.00614         0.13137 
        5.46639         1.00471        0.130409 
        5.48212         1.00169        0.129455 
        5.49786          0.9999         0.12851 
        5.51353        0.997821        0.127579 
        5.52921        0.992586        0.126657 
        5.54495         0.99062        0.125741 
        5.56066        0.990084        0.124834 
        5.57637        0.988468        0.123937 
        5.59207        0.985352         0.12305 
        5.60778        0.982459        0.122171 
        5.62346        0.979305        0.121301 
        5.63916        0.977754        0.120439 
        5.65487        0.973113        0.119586 
         5.6706        0.971737        0.118739 
        5.68633        0.967999          0.1179 
        5.70203        0.968446        0.117072 
        5.71773        0.964196        0.116251 
        5.73344          0.9612        0.115438 
        5.74916        0.959418        0.114631 
        5.76486         0.95709        0.113834 
        5.78054        0.954236        0.113045 
        5.79626        0.952739        0.112262 
          5.812        0.950649        0.111485 
         5.8277        0.947232        0.110718 
        5.84339        0.948178        0.109958 
        5.85911         0.94506        0.109204 
        5.87484        0.943713        0.108457 
        5.89053        0.938294        0.107718 
        5.90623        0.937776        0.106986 
        5.92195        0.933601        0.106259 
        5.93767        0.932749         0.10554 
        5.95336        0.929765        0.104828 
        5.96905        0.927705        0.104124 
        5.98476        0.925967        0.103424 
        6.00048        0.925729        0.102731 
        6.01617         0.92289        0.102046 
        6.03185        0.920507        0.101367 
        6.04756        0.920071        0.100693 
        6.06331        0.916002        0.100023 
        6.07903        0.916434       0.0993614 
        6.09473        0.914591       0.0987061 
        6.11044        0.909374        0.098056 
        6.12616        0.909565        0.097412 
        6.14186        0.906109       0.0967743 
        6.15755        0.905404       0.0961424 
        6.17326         0.90323       0.0955156 
        6.18898        0.901247       0.0948941 
        6.20467        0.900183       0.0942793 
        6.22036        0.896635       0.0936699 
         6.2361        0.894864       0.0930643 
         6.2518        0.893461        0.092465 
        6.26748        0.892173       0.0918724 
        6.28319        0.889682       0.0912832 
        6.29893        0.888222       0.0906988 
        6.31463        0.886409       0.0901204 
        6.33033        0.886321       0.0895472 
        6.34604        0.883936       0.0889787 
        6.36177        0.881108       0.0884145 
        6.37747        0.879009       0.0878563 
