# k  (h/Mpc)    Pcb(k)  (Mpc/h)^3    Pcb_linear(k) (Mpc/h)^3   ShotnoiseSubtracted = true
      0.0200456         4532.99         4600.25 
      0.0350414         3541.85         3607.06 
      0.0492313         2842.23          2857.9 
      0.0637834         2355.77         2323.93 
      0.0800726         1791.63         1755.51 
       0.096163         1357.78         1380.82 
       0.111083         1133.54         1168.86 
       0.126058         982.988         971.656 
       0.142273         817.126         790.673 
       0.158546         702.087         673.561 
        0.17375         586.604         586.021 
       0.188953         533.197         503.799 
       0.204907         489.895          436.11 
       0.220756         421.337         385.452 
        0.23588         372.905         342.365 
         0.2514          326.19         303.363 
       0.267535         304.376         270.548 
       0.283568         277.614         243.111 
       0.299022         256.293         219.536 
       0.314451         232.382         199.044 
       0.330372         215.222         180.979 
       0.346141         194.985         165.213 
       0.361624         184.198         151.421 
       0.377134         173.633         139.223 
       0.392932         157.197         128.232 
       0.408854         151.049         118.321 
       0.424564         144.822         109.543 
       0.440253         134.896         101.686 
       0.455999         127.377         94.5817 
       0.471626         117.669         88.1921 
        0.48727          114.38         82.3854 
       0.502856         108.715         77.1233 
       0.518488         105.045         72.3074 
       0.534347          100.66         67.8399 
       0.550082          92.966         63.7809 
       0.565732         88.7235         60.0744 
       0.581496         85.6775          56.639 
       0.597222         82.9517         53.4796 
       0.612804          78.453         50.5879 
       0.628434          76.584          47.903 
       0.644267         74.2598         45.3825 
       0.660051         71.7129          43.051 
       0.675724         68.7027         40.8984 
       0.691403         66.6641         38.8928 
       0.707174         64.6876         37.0116 
       0.722871         62.5537         35.2632 
        0.73838         61.0028         33.6471 
       0.754018         58.1567         32.1205 
       0.769845         56.8491         30.6723 
        0.78569         55.3445         29.3123 
       0.801365          53.388         28.0483 
       0.817031         52.0988         26.8598 
       0.832809         51.2714         25.7328 
       0.848511         48.6343         24.6757 
       0.864097         47.5842         23.6854 
       0.879701         46.8976         22.7486 
       0.895507         46.1638         21.8517 
       0.911279         44.8388         21.0051 
        0.92691         43.6496         20.2106 
       0.942635         42.2109         19.4529 
       0.958396         41.8487         18.7327 
       0.974128         40.6395         18.0504 
       0.989692         40.0534         17.4089 
        1.00528         39.2078         16.7979 
        1.02113         37.8773         16.2067 
        1.03692         37.2271         15.6464 
        1.05264         36.5668         15.1152 
        1.06832         35.7964         14.6096 
        1.08405         35.1622          14.126 
        1.09979         34.4004          13.664 
        1.11537         33.4483         13.2274 
        1.13105         33.3416         12.8073 
        1.14679         32.8785          12.404 
        1.16256         31.8545         12.0173 
        1.17828         31.4793         11.6484 
        1.19395          30.691         11.2963 
         1.2097         30.5055          10.957 
        1.22537         29.9074         10.6334 
          1.241         29.3366         10.3238 
        1.25666         28.5743         10.0259 
        1.27241          28.341         9.73833 
        1.28819         27.5989         9.46161 
        1.30392         27.3678         9.19648 
        1.31957         27.1431         8.94273 
        1.33529         26.7833         8.69766 
        1.35108         26.1441         8.46083 
        1.36674         25.7178         8.23453 
         1.3824         25.2574         8.01675 
        1.39811         24.9837         7.80615 
        1.41389         24.7232         7.60233 
        1.42964         24.3303         7.40615 
        1.44531         24.1323         7.21788 
        1.46101         23.5041         7.03577 
        1.47667         23.2413          6.8605 
        1.49229         23.0573          6.6917 
        1.50793         22.6758         6.52839 
        1.52367         22.4506          6.3695 
        1.53953         22.1875         6.21485 
        1.55526         21.7863         6.06659 
        1.57092         21.5109         5.92378 
        1.58662         21.2223         5.78524 
        1.60235         20.9702         5.65088 
        1.61809         20.7211         5.52073 
        1.63369         20.4699         5.39585 
        1.64941         20.0531         5.27394 
        1.66519         19.9762         5.15538 
        1.68085         19.6771          5.0413 
        1.69652         19.4052         4.93066 
        1.71228         19.2039         4.82271 
        1.72806          19.024         4.71792 
        1.74368         18.7584          4.6173 
        1.75933         18.5083         4.51942 
        1.77505         18.3038         4.42393 
        1.79081         18.0734         4.33103 
         1.8065         17.9709          4.2412 
        1.82218         17.6303         4.15401 
        1.83797         17.4345         4.06867 
        1.85367         17.2583         3.98621 
        1.86928         17.1421         3.90653 
        1.88497           16.87          3.8286 
        1.90073         16.8066         3.75251 
        1.91647          16.571         3.67856 
        1.93218         16.4132         3.60677 
        1.94787          16.254         3.53699 
        1.96363         16.1072          3.4688 
        1.97935         15.9027         3.40254 
        1.99499         15.6905         3.33839 
        2.01064         15.5191          3.2758 
         2.0264         15.3503         3.21443 
        2.04216         15.2122         3.15467 
        2.05781         14.9762          3.0968 
        2.07353         14.8657         3.04018 
        2.08928         14.7427         2.98485 
        2.10499         14.5729         2.93105 
        2.12065         14.3576         2.87874 
        2.13633         14.3327         2.82767 
        2.15211         14.1377          2.7775 
        2.16785         14.0903          2.7287 
        2.18349         13.9492         2.68137 
        2.19916         13.7244         2.63507 
        2.21489         13.6522         2.58971 
        2.23063         13.4767         2.54539 
         2.2463         13.3351          2.5023 
        2.26194         13.2238         2.46032 
        2.27765         13.1543         2.41909 
        2.29341         12.9901          2.3787 
        2.30914         12.7856         2.33932 
        2.32486         12.7666         2.30085 
        2.34061         12.6087         2.26318 
        2.35635         12.5111          2.2264 
        2.37203         12.4026         2.19055 
        2.38768         12.2556         2.15557 
        2.40339         12.0944         2.12123 
        2.41914         11.9905         2.08756 
        2.43483         11.9511         2.05474 
         2.4505         11.8487         2.02268 
        2.46622          11.729         1.99119 
        2.48195         11.6321         1.96037 
        2.49759         11.5247         1.93038 
        2.51328         11.3909         1.90093 
        2.52906         11.2715         1.87191 
        2.54479          11.187          1.8436 
        2.56049         11.1187         1.81593 
        2.57618         11.0583         1.78886 
        2.59189         10.8923          1.7623 
        2.60758         10.8539         1.73632 
        2.62325         10.7725         1.71089 
        2.63898           10.59         1.68589 
        2.65468         10.5145         1.66144 
        2.67044          10.443         1.63737 
        2.68618         10.3342         1.61383 
        2.70184         10.2651         1.59085 
        2.71755         10.1518         1.56826 
        2.73329         10.0638         1.54607 
        2.74897         9.97955         1.52439 
        2.76462         9.95326         1.50317 
        2.78034         9.79295         1.48227 
        2.79607         9.73514         1.46174 
        2.81179          9.6453         1.44162 
        2.82749         9.60504         1.42191 
        2.84321         9.50976         1.40254 
        2.85893         9.42637         1.38354 
        2.87462         9.33537         1.36493 
        2.89033         9.23742         1.34664 
        2.90605         9.17664         1.32867 
        2.92176         9.09947         1.31103 
        2.93747         9.01471         1.29373 
        2.95318         8.99586         1.27673 
        2.96891         8.89947         1.26003 
        2.98456         8.81165         1.24371 
        3.00023         8.73288         1.22765 
        3.01596         8.68948         1.21182 
        3.03164         8.62592         1.19632 
        3.04738         8.56489         1.18105 
         3.0631         8.44752         1.16604 
        3.07883         8.40367          1.1513 
        3.09456         8.35419         1.13681 
        3.11026         8.26119          1.1226 
        3.12596         8.21881         1.10863 
        3.14163          8.1331         1.09493 
        3.15734         8.07485         1.08143 
        3.17308         8.02065         1.06812 
        3.18879         7.92379         1.05508 
        3.20447         7.87595         1.04227 
         3.2202         7.81058         1.02963 
         3.2359         7.76544         1.01723 
        3.25157          7.7067         1.00506 
        3.26729         7.65779        0.993054 
        3.28304         7.58171         0.98122 
        3.29877         7.51306        0.969594 
        3.31446         7.47296        0.958182 
        3.33014         7.40902        0.946963 
        3.34585         7.35271        0.935907 
        3.36158         7.30463        0.925011 
        3.37727         7.26574        0.914322 
        3.39294         7.20699        0.903813 
        3.40867         7.10969         0.89343 
        3.42439         7.09197        0.883217 
        3.44008         7.02477        0.873183 
        3.45578          6.9721        0.863297 
        3.47153         6.93116        0.853543 
        3.48724         6.87598        0.843956 
        3.50292         6.83167         0.83454 
        3.51859          6.7702        0.825271 
        3.53431         6.71831        0.816114 
        3.55007         6.68206        0.807074 
        3.56577         6.64924        0.798207 
        3.58146          6.5912        0.789476 
        3.59719         6.53318        0.780856 
        3.61292         6.48313        0.772367 
        3.62859         6.42495        0.764037 
        3.64429         6.39301        0.755814 
        3.66003         6.33413        0.747686 
        3.67578         6.30918        0.739681 
        3.69146         6.23402        0.731823 
        3.70712         6.21896        0.724094 
        3.72284         6.14924        0.716448 
        3.73853         6.12122        0.708925 
        3.75422         6.06543        0.701508 
        3.76993         6.04847         0.69419 
        3.78564         5.98695         0.68698 
        3.80137         5.94157         0.67986 
        3.81707         5.89674        0.672856 
        3.83279         5.87541        0.665945 
        3.84853         5.80826         0.65912 
        3.86424         5.76941        0.652404 
        3.87992         5.73372        0.645792 
        3.89561          5.6889         0.63927 
        3.91134         5.65513        0.632826 
        3.92704         5.60746        0.626478 
        3.94273         5.56715        0.620223 
        3.95845          5.5424        0.614042 
        3.97418         5.50347        0.607944 
        3.98988         5.45909        0.601937 
        4.00554          5.4221        0.596028 
        4.02125          5.3852        0.590181 
        4.03698         5.33928        0.584403 
        4.05268         5.30659        0.578716 
        4.06839         5.27752          0.5731 
         4.0841         5.23319         0.56756 
        4.09983         5.19506        0.562086 
        4.11555         5.14951        0.556687 
        4.13124         5.10572        0.551373 
        4.14693         5.06284        0.546123 
        4.16266         5.03364         0.54093 
        4.17839         5.00349        0.535808 
        4.19408         4.96072        0.530764 
        4.20977         4.92466        0.525782 
        4.22551         4.88931        0.520852 
        4.24123         4.85679        0.515991 
        4.25691         4.83339        0.511205 
        4.27259         4.79198        0.506478 
        4.28831          4.7621        0.501801 
        4.30404          4.7235        0.497179 
        4.31974         4.69725        0.492625 
        4.33543         4.64485        0.488131 
        4.35116         4.61906        0.483682 
        4.36688          4.5774         0.47929 
        4.38255         4.54756        0.474969 
        4.39825         4.53972        0.470692 
        4.41398         4.50435        0.466459 
         4.4297         4.47119        0.462282 
        4.44541         4.42994        0.458158 
        4.46111         4.40586        0.454087 
        4.47683         4.36471        0.450062 
        4.49251         4.34955        0.446094 
        4.50819         4.31775        0.442176 
         4.5239         4.29739        0.438298 
        4.53962         4.26757        0.434462 
        4.55535         4.23321        0.430671 
        4.57106          4.2069         0.42693 
        4.58678         4.17668        0.423232 
         4.6025         4.15429        0.419578 
        4.61821         4.11976        0.415967 
        4.63391         4.09043        0.412404 
         4.6496         4.07241        0.408883 
        4.66532         4.03779        0.405398 
        4.68103         4.00982        0.401956 
        4.69673         3.98451        0.398556 
        4.71241         3.95541          0.3952 
        4.72811         3.93971        0.391876 
        4.74384         3.92404        0.388586 
        4.75955         3.88313        0.385339 
        4.77525         3.85268        0.382131 
        4.79096         3.83038        0.378956 
        4.80669         3.80003        0.375815 
         4.8224         3.78752        0.372713 
        4.83809         3.76161         0.36965 
        4.85379         3.73387        0.366619 
         4.8695         3.70613         0.36362 
        4.88521         3.68857        0.360655 
        4.90093         3.66528        0.357723 
        4.91663         3.63997        0.354826 
        4.93234         3.62345        0.351958 
        4.94807         3.59203         0.34912 
        4.96377          3.5735        0.346319 
        4.97943         3.54971        0.343554 
        4.99514         3.52089        0.340812 
        5.01086         3.50836        0.338099 
        5.02654         3.47815        0.335421 
        5.04227         3.46414        0.332765 
          5.058         3.43987        0.330136 
        5.07371         3.41983        0.327541 
        5.08942         3.40222        0.324973 
        5.10513         3.37174        0.322432 
        5.12084         3.35758        0.319918 
        5.13656          3.3345         0.31743 
        5.15225         3.31953        0.314973 
        5.16796         3.28949        0.312539 
        5.18369         3.27847        0.310128 
         5.1994         3.25256        0.307746 
        5.21509         3.22789        0.305392 
        5.23079         3.21585         0.30306 
        5.24649         3.20174        0.300754 
        5.26217          3.1745        0.298473 
        5.27788         3.14945        0.296213 
        5.29359         3.13267        0.293976 
        5.30933          3.1191        0.291758 
        5.32504         3.09506        0.289567 
        5.34073         3.08458        0.287402 
        5.35646         3.06604        0.285254 
        5.37218         3.04318        0.283127 
        5.38789         3.02259        0.281026 
        5.40357         3.00838        0.278948 
        5.41929         2.98702        0.276887 
        5.43502         2.97211        0.274846 
         5.4507         2.95524         0.27283 
        5.46639          2.9381        0.270835 
        5.48212          2.9216        0.268855 
        5.49786         2.89888        0.266892 
        5.51353         2.88815        0.264959 
        5.52921         2.87437        0.263043 
        5.54495         2.85571         0.26114 
        5.56066         2.83258        0.259258 
        5.57637          2.8175        0.257395 
        5.59207         2.80667        0.255552 
        5.60778         2.78778        0.253726 
        5.62346         2.76652         0.25192 
        5.63916         2.75221        0.250131 
        5.65487          2.7361        0.248357 
         5.6706         2.72337        0.246599 
        5.68633         2.71025        0.244857 
        5.70203          2.6945        0.243136 
        5.71773         2.67609        0.241432 
        5.73344         2.65707        0.239743 
        5.74916         2.64505        0.238068 
        5.76486         2.63087        0.236412 
        5.78054         2.62103        0.234774 
        5.79626         2.60499        0.233147 
          5.812          2.5842        0.231534 
         5.8277         2.57693        0.229941 
        5.84339         2.55722        0.228362 
        5.85911         2.54901        0.226796 
        5.87484         2.53184        0.225244 
        5.89053         2.51667         0.22371 
        5.90623         2.50729         0.22219 
        5.92195         2.48857        0.220681 
        5.93767         2.47719        0.219187 
        5.95336         2.46107        0.217709 
        5.96905         2.44774        0.216246 
        5.98476          2.4374        0.214794 
        6.00048         2.42238        0.213354 
        6.01617         2.41143         0.21193 
        6.03185         2.39702        0.210521 
        6.04756         2.37993         0.20912 
        6.06331         2.36468         0.20773 
        6.07903         2.35568        0.206355 
        6.09473         2.34724        0.204994 
        6.11044         2.33087        0.203644 
        6.12616           2.317        0.202307 
        6.14186         2.30384        0.200982 
        6.15755         2.29348         0.19967 
        6.17326         2.28441        0.198368 
        6.18898         2.27166        0.197078 
        6.20467          2.2589        0.195801 
        6.22036         2.24776        0.194535 
         6.2361         2.23548        0.193277 
         6.2518         2.22479        0.192033 
        6.26748         2.21179        0.190802 
        6.28319         2.20034        0.189578 
        6.29893         2.19108        0.188365 
        6.31463         2.17886        0.187163 
        6.33033         2.16411        0.185973 
        6.34604         2.15482        0.184792 
        6.36177         2.14624        0.183621 
        6.37747         2.13288        0.182461 
