# k  (h/Mpc)    Pcb(k)  (Mpc/h)^3    Pcb_linear(k) (Mpc/h)^3   ShotnoiseSubtracted = true
      0.0200456         5674.43         5762.46 
      0.0350414         4423.73         4518.36 
      0.0492313         3553.97         3579.93 
      0.0637834         2953.26         2911.05 
      0.0800726         2245.98         2199.02 
       0.096163         1695.84         1729.67 
       0.111083         1414.81         1464.16 
       0.126058         1231.98         1217.14 
       0.142273         1026.45          990.43 
       0.158546         886.188          843.73 
        0.17375          736.78         734.074 
       0.188953         675.206          631.08 
       0.204907         623.099          546.29 
       0.220756          536.37         482.834 
        0.23588         474.619         428.861 
         0.2514         414.517         380.005 
       0.267535         390.454           338.9 
       0.283568         356.447         304.531 
       0.299022         330.096             275 
       0.314451         301.864         249.331 
       0.330372         279.343         226.702 
       0.346141         252.846         206.953 
       0.361624         240.021         189.677 
       0.377134         225.969         174.397 
       0.392932         206.963         160.629 
       0.408854         198.618         148.214 
       0.424564         190.752         137.218 
       0.440253         179.029         127.376 
       0.455999         169.015         118.477 
       0.471626         155.793         110.473 
        0.48727         151.919         103.199 
       0.502856         145.158         96.6079 
       0.518488         141.156         90.5753 
       0.534347         134.786         84.9791 
       0.550082         124.924         79.8947 
       0.565732         120.306         75.2517 
       0.581496         115.547         70.9484 
       0.597222          111.95         66.9908 
       0.612804         106.442         63.3685 
       0.628434         104.129         60.0053 
       0.644267         100.683         56.8481 
       0.660051         98.0073         53.9276 
       0.675724         94.5669         51.2311 
       0.691403         91.7552         48.7188 
       0.707174         88.6103         46.3623 
       0.722871         86.4959         44.1721 
        0.73838         84.6283         42.1478 
       0.754018         80.5876         40.2355 
       0.769845         78.9965         38.4214 
        0.78569          77.054         36.7178 
       0.801365         74.4824         35.1344 
       0.817031         72.2768         33.6457 
       0.832809         71.3691          32.234 
       0.848511         68.2653         30.9098 
       0.864097         66.5171         29.6693 
       0.879701         65.8088         28.4959 
       0.895507         64.6303         27.3723 
       0.911279         63.2668         26.3119 
        0.92691         61.4661         25.3166 
       0.942635          59.584         24.3676 
       0.958396         59.2788         23.4653 
       0.974128         57.7266         22.6106 
       0.989692         56.5603         21.8072 
        1.00528         55.5236         21.0417 
        1.02113         53.9085         20.3012 
        1.03692         52.8955         19.5993 
        1.05264         52.2225         18.9339 
        1.06832         51.0944         18.3007 
        1.08405          50.395         17.6948 
        1.09979         49.4895         17.1161 
        1.11537         47.7463         16.5692 
        1.13105         47.9624          16.043 
        1.14679         47.1158         15.5377 
        1.16256         46.0072         15.0533 
        1.17828         45.0267         14.5913 
        1.19395         44.3662         14.1502 
         1.2097          43.776         13.7252 
        1.22537         43.3217         13.3198 
          1.241         42.2777         12.9321 
        1.25666         41.3433         12.5588 
        1.27241         41.1278         12.1986 
        1.28819         39.9817          11.852 
        1.30392         39.4807         11.5199 
        1.31957         39.2615          11.202 
        1.33529         38.8237         10.8951 
        1.35108         38.0808         10.5984 
        1.36674         37.3925         10.3149 
         1.3824         36.6317         10.0421 
        1.39811          36.442         9.77831 
        1.41389         35.8889           9.523 
        1.42964          35.313         9.27726 
        1.44531         34.9793         9.04142 
        1.46101         34.0871          8.8133 
        1.47667         33.9565         8.59376 
        1.49229         33.6737          8.3823 
        1.50793         33.0016         8.17774 
        1.52367         32.7153         7.97871 
        1.53953         32.3806         7.78499 
        1.55526          31.772         7.59926 
        1.57092         31.4393         7.42038 
        1.58662         30.9975         7.24684 
        1.60235         30.6826         7.07854 
        1.61809         30.2287          6.9155 
        1.63369         29.8437         6.75907 
        1.64941         29.3188         6.60637 
        1.66519         29.1465         6.45784 
        1.68085         28.7681         6.31495 
        1.69652         28.4114         6.17635 
        1.71228         28.1705         6.04113 
        1.72806         27.7283         5.90987 
        1.74368         27.3816         5.78383 
        1.75933          27.044         5.66122 
        1.77505         26.8616          5.5416 
        1.79081         26.4177         5.42523 
         1.8065         26.2437         5.31271 
        1.82218         25.8865         5.20349 
        1.83797         25.5525         5.09659 
        1.85367         25.2691         4.99329 
        1.86928         24.9852         4.89348 
        1.88497         24.6183         4.79587 
        1.90073         24.6227         4.70055 
        1.91647         24.1627         4.60792 
        1.93218         23.9577         4.51799 
        1.94787         23.7795         4.43059 
        1.96363         23.5527         4.34516 
        1.97935         23.2657         4.26216 
        1.99499         22.9783         4.18181 
        2.01064         22.7585         4.10341 
         2.0264         22.4147         4.02653 
        2.04216         22.2363         3.95167 
        2.05781         22.0057         3.87918 
        2.07353         21.7924         3.80825 
        2.08928         21.6754         3.73895 
        2.10499         21.3287         3.67156 
        2.12065         21.0254         3.60603 
        2.13633         20.9357         3.54205 
        2.15211         20.6003         3.47922 
        2.16785         20.5159         3.41808 
        2.18349         20.3483          3.3588 
        2.19916         20.0397          3.3008 
        2.21489         19.8733         3.24398 
        2.23063         19.6964         3.18846 
         2.2463         19.5064         3.13449 
        2.26194         19.3562         3.08191 
        2.27765         19.0953         3.03026 
        2.29341         18.8713         2.97967 
        2.30914          18.719         2.93033 
        2.32486         18.6032         2.88214 
        2.34061         18.3591         2.83496 
        2.35635         18.1281         2.78888 
        2.37203         18.0511         2.74398 
        2.38768         17.8852         2.70016 
        2.40339         17.6573         2.65714 
        2.41914         17.4857         2.61496 
        2.43483         17.3185         2.57385 
         2.4505         17.1294         2.53369 
        2.46622         16.9973         2.49425 
        2.48195         16.7858         2.45565 
        2.49759         16.7106         2.41807 
        2.51328         16.5086         2.38118 
        2.52906         16.3655         2.34483 
        2.54479         16.2372         2.30937 
        2.56049         16.0648         2.27472 
        2.57618         15.9696          2.2408 
        2.59189         15.7801         2.20753 
        2.60758         15.6649         2.17499 
        2.62325         15.5404         2.14314 
        2.63898         15.3248         2.11182 
        2.65468         15.2883         2.08119 
        2.67044         15.0866         2.05104 
        2.68618         14.9661         2.02155 
        2.70184         14.8403         1.99277 
        2.71755         14.6555         1.96447 
        2.73329         14.5558         1.93668 
        2.74897         14.3916         1.90952 
        2.76462          14.401         1.88293 
        2.78034         14.1953         1.85675 
        2.79607          14.047         1.83104 
        2.81179         13.9242         1.80584 
        2.82749         13.8277         1.78114 
        2.84321         13.6592         1.75688 
        2.85893         13.5594         1.73308 
        2.87462         13.4408         1.70976 
        2.89033         13.2783         1.68685 
        2.90605         13.1858         1.66434 
        2.92176         13.1082         1.64225 
        2.93747          12.953         1.62058 
        2.95318         12.8798         1.59929 
        2.96891         12.7124         1.57837 
        2.98456         12.6535         1.55792 
        3.00023         12.5592         1.53781 
        3.01596         12.4297         1.51798 
        3.03164         12.3341         1.49856 
        3.04738         12.2009         1.47943 
         3.0631         12.0866         1.46063 
        3.07883         11.9876         1.44217 
        3.09456         11.9035         1.42402 
        3.11026         11.7279         1.40621 
        3.12596         11.7279         1.38871 
        3.14163         11.6012         1.37155 
        3.15734         11.4827         1.35464 
        3.17308         11.4323         1.33797 
        3.18879         11.3249         1.32163 
        3.20447         11.2024         1.30559 
         3.2202         11.1079         1.28976 
         3.2359         11.0482         1.27423 
        3.25157         10.9514         1.25898 
        3.26729         10.8279         1.24394 
        3.28304         10.7539         1.22912 
        3.29877         10.6515         1.21455 
        3.31446         10.5969         1.20026 
        3.33014         10.4788         1.18621 
        3.34585         10.4362         1.17236 
        3.36158         10.3219         1.15871 
        3.37727         10.2533         1.14532 
        3.39294         10.1584         1.13215 
        3.40867           10.02         1.11915 
        3.42439         9.98762         1.10635 
        3.44008         9.89304         1.09379 
        3.45578         9.83383          1.0814 
        3.47153         9.76805         1.06918 
        3.48724         9.68363         1.05718 
        3.50292         9.57355         1.04538 
        3.51859         9.52198         1.03377 
        3.53431         9.43656          1.0223 
        3.55007         9.38573         1.01098 
        3.56577         9.30552        0.999867 
        3.58146         9.23241        0.988931 
        3.59719         9.12478        0.978133 
        3.61292         9.08383          0.9675 
        3.62859         8.96165        0.957065 
        3.64429         8.92244        0.946764 
        3.66003         8.86276        0.936583 
        3.67578         8.75394        0.926556 
        3.69146         8.71708        0.916713 
        3.70712         8.66035        0.907031 
        3.72284         8.56236        0.897453 
        3.73853         8.52188        0.888029 
        3.75422         8.44108        0.878738 
        3.76993          8.3765        0.869572 
        3.78564         8.30663         0.86054 
        3.80137         8.25666        0.851621 
        3.81707         8.17078        0.842848 
        3.83279         8.13919        0.834191 
        3.84853         8.05833        0.825642 
        3.86424         7.97357        0.817229 
        3.87992         7.92052        0.808946 
        3.89561          7.8728        0.800777 
        3.91134         7.80515        0.792705 
        3.92704         7.75424        0.784752 
        3.94273         7.69084        0.776917 
        3.95845         7.63484        0.769175 
        3.97418         7.56225        0.761536 
        3.98988         7.51486        0.754012 
        4.00554         7.43331        0.746609 
        4.02125         7.39606        0.739285 
        4.03698         7.34713        0.732048 
        4.05268         7.29165        0.724924 
        4.06839          7.2221        0.717889 
         4.0841         7.17948         0.71095 
        4.09983         7.13825        0.704093 
        4.11555         7.09048        0.697329 
        4.13124          7.0161        0.690673 
        4.14693         6.95982        0.684097 
        4.16266         6.90088        0.677592 
        4.17839         6.85027        0.671176 
        4.19408         6.79258        0.664857 
        4.20977         6.73538        0.658617 
        4.22551         6.69191        0.652442 
        4.24123         6.64911        0.646352 
        4.25691         6.59755        0.640357 
        4.27259         6.53843        0.634435 
        4.28831         6.49557        0.628577 
        4.30404         6.43933        0.622787 
        4.31974         6.38712        0.617083 
        4.33543         6.33885        0.611453 
        4.35116         6.31313         0.60588 
        4.36688         6.25317        0.600379 
        4.38255         6.19621        0.594966 
        4.39825         6.15183        0.589608 
        4.41398         6.10696        0.584306 
         4.4297         6.09327        0.579074 
        4.44541         6.02071        0.573908 
        4.46111         5.99209        0.568808 
        4.47683         5.92654        0.563767 
        4.49251         5.90974        0.558797 
        4.50819         5.85517        0.553888 
         4.5239         5.79663        0.549031 
        4.53962         5.77329        0.544226 
        4.55535         5.72184        0.539476 
        4.57106          5.6758         0.53479 
        4.58678         5.63564        0.530159 
         4.6025         5.59892        0.525581 
        4.61821         5.55559        0.521058 
        4.63391         5.51273        0.516594 
         4.6496          5.4692        0.512184 
        4.66532         5.43941        0.507819 
        4.68103         5.39118        0.503507 
        4.69673         5.36637        0.499248 
        4.71241         5.32294        0.495044 
        4.72811           5.285         0.49088 
        4.74384         5.24805         0.48676 
        4.75955         5.21087        0.482692 
        4.77525         5.17304        0.478674 
        4.79096         5.14456        0.474696 
        4.80669         5.09521        0.470762 
         4.8224         5.06874        0.466876 
        4.83809         5.01852        0.463039 
        4.85379         4.98444        0.459242 
         4.8695         4.95591        0.455485 
        4.88521         4.92397        0.451772 
        4.90093          4.8852        0.448099 
        4.91663         4.85292         0.44447 
        4.93234         4.82985        0.440878 
        4.94807         4.78485        0.437323 
        4.96377           4.753        0.433814 
        4.97943         4.70656         0.43035 
        4.99514         4.68084        0.426916 
        5.01086         4.64243        0.423516 
        5.02654         4.63516        0.420163 
        5.04227         4.58316        0.416835 
          5.058          4.5542        0.413542 
        5.07371         4.53527        0.410291 
        5.08942         4.50467        0.407075 
        5.10513         4.47351        0.403892 
        5.12084         4.44142        0.400742 
        5.13656         4.41358        0.397626 
        5.15225         4.37606        0.394549 
        5.16796         4.35771        0.391499 
        5.18369         4.31572        0.388479 
         5.1994         4.29364        0.385496 
        5.21509         4.26207        0.382547 
        5.23079         4.23466        0.379625 
        5.24649         4.20814        0.376737 
        5.26217         4.18086         0.37388 
        5.27788         4.14919        0.371049 
        5.29359         4.11751        0.368246 
        5.30933          4.0894        0.365469 
        5.32504         4.07347        0.362724 
        5.34073         4.03066        0.360011 
        5.35646         4.01115        0.357321 
        5.37218         3.98609        0.354657 
        5.38789         3.96576        0.352024 
        5.40357         3.93794        0.349422 
        5.41929         3.90548         0.34684 
        5.43502         3.89087        0.344283 
         5.4507         3.85198        0.341759 
        5.46639         3.83093        0.339259 
        5.48212          3.8145        0.336779 
        5.49786         3.78625        0.334321 
        5.51353         3.75834        0.331899 
        5.52921         3.73333        0.329498 
        5.54495         3.70544        0.327115 
        5.56066         3.69053        0.324757 
        5.57637         3.66869        0.322424 
        5.59207         3.64696        0.320115 
        5.60778         3.62145        0.317827 
        5.62346         3.58534        0.315566 
        5.63916         3.57176        0.313324 
        5.65487         3.54676        0.311103 
         5.6706         3.52974        0.308901 
        5.68633         3.50437        0.306719 
        5.70203         3.48254        0.304563 
        5.71773         3.46739        0.302427 
        5.73344         3.44787        0.300312 
        5.74916         3.42035        0.298214 
        5.76486         3.39696        0.296139 
        5.78054         3.37034        0.294088 
        5.79626         3.36152         0.29205 
          5.812         3.34019        0.290029 
         5.8277         3.32242        0.288033 
        5.84339         3.30042        0.286056 
        5.85911         3.27768        0.284094 
        5.87484          3.2651         0.28215 
        5.89053         3.23494        0.280229 
        5.90623         3.22064        0.278325 
        5.92195         3.19699        0.276434 
        5.93767         3.18415        0.274563 
        5.95336         3.16372        0.272712 
        5.96905         3.14358        0.270879 
        5.98476         3.12677         0.26906 
        6.00048         3.10147        0.267257 
        6.01617         3.08923        0.265473 
        6.03185          3.0637        0.263707 
        6.04756         3.04554        0.261953 
        6.06331          3.0312        0.260212 
        6.07903         3.01773        0.258489 
        6.09473         2.99711        0.256785 
        6.11044         2.97917        0.255093 
        6.12616         2.96535        0.253418 
        6.14186         2.94125        0.251759 
        6.15755         2.92777        0.250115 
        6.17326         2.91226        0.248485 
        6.18898         2.89388        0.246868 
        6.20467         2.87565        0.245268 
        6.22036         2.85572        0.243683 
         6.2361         2.84346        0.242107 
         6.2518         2.82406        0.240548 
        6.26748         2.81271        0.239007 
        6.28319         2.79262        0.237474 
        6.29893         2.77588        0.235953 
        6.31463         2.76562        0.234449 
        6.33033         2.75224        0.232958 
        6.34604         2.73112        0.231479 
        6.36177         2.71422        0.230011 
        6.37747         2.70118        0.228559 
