# k  (h/Mpc)    Pcb(k)  (Mpc/h)^3    Pcb_linear(k) (Mpc/h)^3   ShotnoiseSubtracted = true
      0.0200456         22720.8         23086.6 
      0.0350414         18592.7         18102.2 
      0.0492313         13878.9         14342.6 
      0.0637834           10959         11662.8 
      0.0800726         8277.92          8810.1 
       0.096163         7063.19         6929.71 
       0.111083         6017.29         5865.99 
       0.126058         4793.27         4876.31 
       0.142273         4133.26         3968.03 
       0.158546         3511.21          3380.3 
        0.17375         3195.54         2940.98 
       0.188953         3002.47         2528.34 
       0.204907         2586.09         2188.64 
       0.220756         2354.41         1934.41 
        0.23588         2119.07         1718.18 
         0.2514         1927.74         1522.44 
       0.267535         1849.72         1357.76 
       0.283568         1663.78         1220.06 
       0.299022         1590.57         1101.75 
       0.314451         1653.38         998.913 
       0.330372         1484.45         908.255 
       0.346141         1365.53         829.131 
       0.361624         1309.24         759.915 
       0.377134         1258.53         698.701 
       0.392932         1200.37         643.539 
       0.408854         1151.62         593.802 
       0.424564         1130.62         549.749 
       0.440253          1058.1         510.317 
       0.455999         1013.07         474.664 
       0.471626         1020.35         442.597 
        0.48727         970.403         413.456 
       0.502856         938.784         387.047 
       0.518488         906.933         362.878 
       0.534347         873.854         340.458 
       0.550082         837.756         320.088 
       0.565732         821.808         301.487 
       0.581496         801.709         284.246 
       0.597222         790.128          268.39 
       0.612804         770.998         253.878 
       0.628434         739.557         240.404 
       0.644267         720.484         227.755 
       0.660051         711.549         216.054 
       0.675724         699.196         205.251 
       0.691403         673.282         195.186 
       0.707174         656.406         185.745 
       0.722871         648.435          176.97 
        0.73838         634.101          168.86 
       0.754018         622.192         161.198 
       0.769845         610.993         153.931 
        0.78569         596.094         147.105 
       0.801365         578.356         140.762 
       0.817031         571.506         134.797 
       0.832809         561.491         129.141 
       0.848511         550.456         123.836 
       0.864097         543.349         118.866 
       0.879701         543.108         114.165 
       0.895507         521.383         109.664 
       0.911279         517.006         105.415 
        0.92691          506.37         101.428 
       0.942635         499.887         97.6255 
       0.958396          487.77         94.0109 
       0.974128         479.628         90.5867 
       0.989692         467.097         87.3677 
        1.00528          462.44         84.3011 
        1.02113         452.867         81.3344 
        1.03692         446.296         78.5221 
        1.05264         439.321         75.8565 
        1.06832         429.895         73.3193 
        1.08405         427.399          70.892 
        1.09979         417.114         68.5737 
        1.11537         407.757         66.3824 
        1.13105         403.389         64.2743 
        1.14679         395.703           62.25 
        1.16256         391.977         60.3093 
        1.17828         385.876         58.4581 
        1.19395         376.984         56.6911 
         1.2097         372.074         54.9885 
        1.22537         365.254         53.3642 
          1.241         359.747         51.8107 
        1.25666         354.592         50.3154 
        1.27241         350.351         48.8723 
        1.28819         342.301         47.4836 
        1.30392         340.322         46.1531 
        1.31957         332.805         44.8796 
        1.33529         328.458         43.6497 
        1.35108         326.996         42.4611 
        1.36674         318.309         41.3255 
         1.3824         312.751         40.2325 
        1.39811         309.208         39.1756 
        1.41389          303.97         38.1527 
        1.42964         299.092         37.1682 
        1.44531         293.091         36.2233 
        1.46101         287.745         35.3094 
        1.47667         286.329         34.4298 
        1.49229         281.879         33.5826 
        1.50793         276.599         32.7631 
        1.52367         271.432         31.9657 
        1.53953         267.862         31.1896 
        1.55526         263.764         30.4455 
        1.57092         259.911         29.7288 
        1.58662         255.566         29.0336 
        1.60235         251.991         28.3593 
        1.61809         249.661         27.7061 
        1.63369         245.048         27.0794 
        1.64941         241.855         26.4676 
        1.66519          237.91         25.8725 
        1.68085           233.5         25.3001 
        1.69652         230.837         24.7448 
        1.71228         227.036          24.203 
        1.72806           223.9         23.6771 
        1.74368         220.928         23.1722 
        1.75933         218.647          22.681 
        1.77505         214.817         22.2017 
        1.79081         212.369         21.7355 
         1.8065         210.074         21.2847 
        1.82218         205.059         20.8471 
        1.83797         203.379         20.4189 
        1.85367         199.739          20.005 
        1.86928         196.424         19.6051 
        1.88497         194.247          19.214 
        1.90073          192.39         18.8322 
        1.91647         189.111         18.4611 
        1.93218         186.423         18.1007 
        1.94787         182.645         17.7506 
        1.96363         181.829         17.4083 
        1.97935         178.993         17.0758 
        1.99499         176.576         16.7539 
        2.01064         172.907         16.4398 
         2.0264         171.884         16.1318 
        2.04216         168.854         15.8319 
        2.05781         167.244         15.5414 
        2.07353         165.897         15.2573 
        2.08928         163.584         14.9796 
        2.10499         160.623         14.7096 
        2.12065         158.516         14.4471 
        2.13633         156.297         14.1908 
        2.15211         154.421          13.939 
        2.16785         152.536         13.6941 
        2.18349         150.714         13.4566 
        2.19916         148.556         13.2242 
        2.21489         146.715         12.9966 
        2.23063         144.956         12.7742 
         2.2463         142.875         12.5579 
        2.26194          140.66         12.3473 
        2.27765         139.117         12.1404 
        2.29341         137.344         11.9377 
        2.30914         135.606           11.74 
        2.32486         133.857         11.5469 
        2.34061         131.494         11.3579 
        2.35635         130.219         11.1733 
        2.37203         129.073         10.9934 
        2.38768         127.703         10.8179 
        2.40339         125.312         10.6455 
        2.41914         123.649         10.4765 
        2.43483         122.444         10.3118 
         2.4505         121.095         10.1509 
        2.46622          118.86          9.9929 
        2.48195         118.268         9.83825 
        2.49759         115.864         9.68769 
        2.51328          114.96          9.5399 
        2.52906         113.769         9.39426 
        2.54479          112.06          9.2522 
        2.56049         110.939         9.11336 
        2.57618         109.552         8.97749 
        2.59189         108.453         8.84419 
        2.60758         107.132         8.71381 
        2.62325         105.351         8.58621 
        2.63898         104.128         8.46073 
        2.65468         102.818         8.33802 
        2.67044         102.059         8.21723 
        2.68618          100.46          8.0991 
        2.70184         99.5351         7.98377 
        2.71755         98.0372          7.8704 
        2.73329         96.8237         7.75906 
        2.74897          95.946         7.65024 
        2.76462         95.0631         7.54374 
        2.78034         93.9264         7.43884 
        2.79607         92.7172         7.33582 
        2.81179          91.788         7.23487 
        2.82749         90.8987         7.13593 
        2.84321         89.4595         7.03874 
        2.85893         88.3375         6.94338 
        2.87462         87.2931         6.84996 
        2.89033         86.5205         6.75817 
        2.90605         85.3499         6.66798 
        2.92176         84.3934         6.57949 
        2.93747         83.6083         6.49264 
        2.95318         82.5137         6.40735 
        2.96891         81.8133         6.32355 
        2.98456         80.5347         6.24162 
        3.00023         79.8785         6.16103 
        3.01596         79.1958          6.0816 
        3.03164         78.3015         6.00381 
        3.04738         77.5096         5.92714 
         3.0631         76.5946         5.85185 
        3.07883         75.7846         5.77785 
        3.09456         74.8834         5.70515 
        3.11026         74.1752         5.63382 
        3.12596         73.0414         5.56371 
        3.14163         72.5317         5.49495 
        3.15734         71.6282          5.4272 
        3.17308         70.8261         5.36043 
        3.18879         70.4044         5.29496 
        3.20447         69.5286         5.23068 
         3.2202         68.4766         5.16727 
         3.2359         68.0944         5.10503 
        3.25157          67.535         5.04395 
        3.26729         66.4757          4.9837 
        3.28304         66.0076          4.9243 
        3.29877         65.2309         4.86596 
        3.31446         64.5709         4.80869 
        3.33014         63.9873         4.75239 
        3.34585          63.241          4.6969 
        3.36158         62.6611         4.64222 
        3.37727         61.8887         4.58858 
        3.39294         61.3402         4.53583 
        3.40867         60.5096         4.48373 
        3.42439         60.0032         4.43247 
        3.44008         59.4073         4.38212 
        3.45578         58.9237          4.3325 
        3.47153         58.2334         4.28355 
        3.48724         57.6467         4.23544 
        3.50292         57.1922         4.18818 
        3.51859         56.5168         4.14167 
        3.53431         55.9418         4.09571 
        3.55007         55.3873         4.05035 
        3.56577         54.8822         4.00584 
        3.58146         54.2856         3.96203 
        3.59719         53.8139         3.91877 
        3.61292         53.2771         3.87617 
        3.62859         52.6891         3.83436 
        3.64429         52.2813         3.79309 
        3.66003         51.5554          3.7523 
        3.67578         51.1301         3.71213 
        3.69146         50.6362         3.67269 
        3.70712         50.1057          3.6339 
        3.72284          49.631         3.59553 
        3.73853         49.2141         3.55778 
        3.75422          48.837         3.52055 
        3.76993         48.3001         3.48383 
        3.78564         47.8386         3.44764 
        3.80137         47.2671         3.41191 
        3.81707         46.9676         3.37676 
        3.83279         46.6366         3.34208 
        3.84853         46.0744         3.30783 
        3.86424         45.6525         3.27413 
        3.87992         45.1342         3.24094 
        3.89561         44.8431         3.20821 
        3.91134         44.3117         3.17587 
        3.92704         44.0432         3.14401 
        3.94273         43.5711         3.11262 
        3.95845         43.1965          3.0816 
        3.97418         42.7401           3.051 
        3.98988         42.4299         3.02085 
        4.00554          41.856          2.9912 
        4.02125         41.4925         2.96185 
        4.03698         41.1732         2.93286 
        4.05268         40.7536         2.90432 
        4.06839         40.4399         2.87613 
         4.0841         40.1664         2.84833 
        4.09983         39.7823         2.82086 
        4.11555         39.3859         2.79376 
        4.13124         38.9681         2.76709 
        4.14693         38.7773         2.74075 
        4.16266         38.3073         2.71469 
        4.17839          37.909         2.68898 
        4.19408         37.6049         2.66367 
        4.20977         37.3092         2.63867 
        4.22551         36.9403         2.61393 
        4.24123         36.6325         2.58953 
        4.25691         36.2193         2.56551 
        4.27259         36.0308         2.54179 
        4.28831         35.6876         2.51832 
        4.30404         35.3512         2.49512 
        4.31974         34.9879         2.47227 
        4.33543         34.6907         2.44971 
        4.35116         34.3923         2.42738 
        4.36688         34.1215         2.40534 
        4.38255         33.8681         2.38366 
        4.39825         33.5647         2.36219 
        4.41398         33.3632         2.34095 
         4.4297         32.9409         2.31999 
        4.44541         32.7196         2.29929 
        4.46111         32.4493         2.27886 
        4.47683         32.2772         2.25866 
        4.49251         31.9302         2.23875 
        4.50819         31.5718         2.21908 
         4.5239         31.2972         2.19962 
        4.53962         31.0768         2.18037 
        4.55535         30.7533         2.16134 
        4.57106         30.5487         2.14257 
        4.58678         30.2653         2.12401 
         4.6025         30.0031         2.10567 
        4.61821         29.8041         2.08755 
        4.63391         29.5345         2.06967 
         4.6496         29.2785           2.052 
        4.66532         29.1281         2.03451 
        4.68103         28.7954         2.01724 
        4.69673         28.5379         2.00018 
        4.71241         28.3485         1.98333 
        4.72811         28.1106         1.96665 
        4.74384         27.8641         1.95014 
        4.75955         27.6585         1.93385 
        4.77525         27.4224         1.91775 
        4.79096         27.1977         1.90181 
        4.80669         26.9715         1.88605 
         4.8224         26.7475         1.87048 
        4.83809         26.5231         1.85511 
        4.85379         26.3287          1.8399 
         4.8695         26.0277         1.82484 
        4.88521         25.8259         1.80997 
        4.90093         25.6326         1.79525 
        4.91663         25.4936         1.78071 
        4.93234         25.3174         1.76632 
        4.94807         25.0584         1.75208 
        4.96377         24.8995         1.73802 
        4.97943         24.6602         1.72415 
        4.99514         24.4551         1.71039 
        5.01086         24.2761         1.69677 
        5.02654         24.1016         1.68333 
        5.04227         23.8651            1.67 
          5.058         23.7152          1.6568 
        5.07371         23.5696         1.64378 
        5.08942         23.3589         1.63089 
        5.10513         23.1661         1.61814 
        5.12084         23.0176         1.60552 
        5.13656         22.7696         1.59304 
        5.15225         22.6402         1.58071 
        5.16796         22.4424         1.56849 
        5.18369         22.2708         1.55639 
         5.1994         22.1126         1.54444 
        5.21509         21.8948         1.53263 
        5.23079         21.7213         1.52092 
        5.24649         21.5718         1.50935 
        5.26217         21.4504          1.4979 
        5.27788         21.2419         1.48656 
        5.29359         21.0504         1.47533 
        5.30933         20.9053          1.4642 
        5.32504         20.7921         1.45321 
        5.34073         20.6055         1.44234 
        5.35646         20.4689         1.43156 
        5.37218         20.3198         1.42089 
        5.38789          20.179         1.41034 
        5.40357         19.9772         1.39991 
        5.41929         19.8333         1.38957 
        5.43502         19.7357         1.37933 
         5.4507         19.5618         1.36921 
        5.46639         19.3989          1.3592 
        5.48212         19.2691         1.34926 
        5.49786         19.1339         1.33941 
        5.51353         18.9599         1.32971 
        5.52921         18.8338         1.32009 
        5.54495         18.6664         1.31054 
        5.56066         18.5352          1.3011 
        5.57637         18.4415         1.29175 
        5.59207         18.2909          1.2825 
        5.60778         18.1796         1.27334 
        5.62346         18.0139         1.26427 
        5.63916         17.8921         1.25529 
        5.65487         17.7901         1.24639 
         5.6706          17.619         1.23757 
        5.68633         17.5035         1.22883 
        5.70203         17.3835         1.22019 
        5.71773         17.2578         1.21164 
        5.73344         17.1466         1.20316 
        5.74916         17.0012         1.19476 
        5.76486         16.8968         1.18645 
        5.78054         16.7376         1.17823 
        5.79626         16.6698         1.17006 
          5.812         16.5004         1.16196 
         5.8277         16.4095         1.15397 
        5.84339         16.2754         1.14605 
        5.85911         16.1638         1.13819 
        5.87484         16.0447          1.1304 
        5.89053          15.953          1.1227 
        5.90623         15.8456         1.11507 
        5.92195         15.6982          1.1075 
        5.93767         15.5964             1.1 
        5.95336          15.481         1.09259 
        5.96905         15.3879         1.08524 
        5.98476          15.265         1.07795 
        6.00048         15.1861         1.07073 
        6.01617         15.0595         1.06358 
        6.03185         14.9543         1.05651 
        6.04756         14.8584         1.04948 
        6.06331         14.7492         1.04251 
        6.07903         14.6638         1.03561 
        6.09473         14.5593         1.02878 
        6.11044         14.4746           1.022 
        6.12616         14.3565         1.01529 
        6.14186          14.261         1.00864 
        6.15755         14.1801         1.00205 
        6.17326         14.0909        0.995522 
        6.18898         13.9596        0.989045 
        6.20467         13.8665        0.982636 
        6.22036         13.7571        0.976285 
         6.2361          13.684        0.969973 
         6.2518          13.594        0.963727 
        6.26748         13.4847         0.95755 
        6.28319         13.4005         0.95141 
        6.29893         13.2999        0.945318 
        6.31463         13.2076         0.93929 
        6.33033         13.1259        0.933316 
        6.34604         13.0351         0.92739 
        6.36177         12.9572         0.92151 
        6.37747         12.8807        0.915692 
