# k  (h/Mpc)    Pcb(k)  (Mpc/h)^3    Pcb_linear(k) (Mpc/h)^3   ShotnoiseSubtracted = true
      0.0200456         295.714         298.951 
      0.0350414         236.008         234.408 
      0.0492313         185.877         185.723 
      0.0637834         150.109         151.023 
      0.0800726         113.982         114.083 
       0.096163          90.443         89.7337 
       0.111083         76.5151         75.9594 
       0.126058         63.0081         63.1439 
       0.142273         51.3644         51.3825 
       0.158546         43.7833         43.7719 
        0.17375         38.3062          38.083 
       0.188953         32.8767         32.7398 
       0.204907         28.0408          28.341 
       0.220756         25.0541         25.0489 
        0.23588         22.2519         22.2489 
         0.2514         19.7761         19.7143 
       0.267535         17.7039         17.5818 
       0.283568          15.859         15.7988 
       0.299022         14.3458         14.2667 
       0.314451         13.1773          12.935 
       0.330372         11.8853         11.7611 
       0.346141         10.8512         10.7365 
       0.361624         9.91938         9.84024 
       0.377134          9.0974         9.04756 
       0.392932         8.56733         8.33327 
       0.408854         7.76637         7.68922 
       0.424564         7.30866         7.11876 
       0.440253         6.72421         6.60815 
       0.455999         6.19392         6.14648 
       0.471626         5.78136         5.73124 
        0.48727          5.4928         5.35389 
       0.502856         5.14736         5.01192 
       0.518488         4.75413         4.69896 
       0.534347         4.44228         4.40863 
       0.550082         4.23971         4.14486 
       0.565732         4.03578         3.90399 
       0.581496         3.77727         3.68074 
       0.597222         3.56157         3.47542 
       0.612804         3.36196          3.2875 
       0.628434         3.19546         3.11302 
       0.644267         3.04446         2.94922 
       0.660051         2.88812         2.79771 
       0.675724         2.72353         2.65782 
       0.691403         2.59838         2.52748 
       0.707174         2.47323         2.40523 
       0.722871         2.40304         2.29161 
        0.73838         2.24608         2.18658 
       0.754018         2.14578         2.08738 
       0.769845         2.03181         1.99327 
        0.78569         1.96938         1.90488 
       0.801365         1.88731         1.82274 
       0.817031         1.81449         1.74551 
       0.832809         1.72288         1.67227 
       0.848511         1.66163         1.60357 
       0.864097          1.6028         1.53921 
       0.879701         1.54969         1.47834 
       0.895507         1.47047         1.42005 
       0.911279         1.42585         1.36504 
        0.92691         1.38342          1.3134 
       0.942635         1.31272         1.26417 
       0.958396         1.26983         1.21736 
       0.974128         1.22725         1.17302 
       0.989692          1.1826         1.13133 
        1.00528         1.13669         1.09163 
        1.02113         1.10989         1.05321 
        1.03692         1.07462         1.01679 
        1.05264         1.02793        0.982275 
        1.06832         0.99823        0.949421 
        1.08405        0.960178        0.917989 
        1.09979          0.9355        0.887969 
        1.11537        0.900398        0.859594 
        1.13105        0.866905        0.832296 
        1.14679        0.847115        0.806083 
        1.16256        0.822186        0.780953 
        1.17828        0.800696        0.756981 
        1.19395        0.775293          0.7341 
         1.2097        0.750111        0.712052 
        1.22537        0.725238         0.69102 
          1.241        0.706627        0.670903 
        1.25666        0.691744         0.65154 
        1.27241        0.668588        0.632854 
        1.28819         0.64752        0.614871 
        1.30392        0.632427        0.597641 
        1.31957        0.614491        0.581151 
        1.33529         0.59707        0.565225 
        1.35108        0.580372        0.549834 
        1.36674        0.564398        0.535128 
         1.3824        0.553274        0.520976 
        1.39811         0.53582        0.507289 
        1.41389        0.524334        0.494044 
        1.42964        0.510182        0.481295 
        1.44531        0.496584         0.46906 
        1.46101        0.482068        0.457226 
        1.47667        0.472499        0.445836 
        1.49229        0.458668        0.434866 
        1.50793        0.449669        0.424253 
        1.52367        0.436556        0.413928 
        1.53953        0.426175        0.403878 
        1.55526        0.417103        0.394242 
        1.57092          0.4109        0.384962 
        1.58662        0.400583        0.375959 
        1.60235        0.390544        0.367228 
        1.61809        0.380037         0.35877 
        1.63369          0.3708        0.350654 
        1.64941        0.363928        0.342732 
        1.66519        0.356882        0.335027 
        1.68085        0.346676        0.327614 
        1.69652        0.339764        0.320423 
        1.71228        0.331941        0.313408 
        1.72806        0.325729        0.306598 
        1.74368        0.318491        0.300059 
        1.75933        0.312467        0.293699 
        1.77505        0.306606        0.287493 
        1.79081         0.29772        0.281456 
         1.8065        0.293709        0.275618 
        1.82218        0.285647        0.269952 
        1.83797        0.278783        0.264406 
        1.85367        0.274864        0.259047 
        1.86928        0.268448        0.253869 
        1.88497        0.262597        0.248805 
        1.90073        0.257878         0.24386 
        1.91647         0.25372        0.239055 
        1.93218          0.2495        0.234389 
        1.94787         0.24295        0.229855 
        1.96363        0.238773        0.225423 
        1.97935        0.234117        0.221117 
        1.99499        0.229313        0.216948 
        2.01064         0.22542        0.212881 
         2.0264        0.221141        0.208893 
        2.04216        0.216226        0.205009 
        2.05781        0.212686        0.201248 
        2.07353        0.209223        0.197569 
        2.08928         0.20577        0.193973 
        2.10499        0.200954        0.190477 
        2.12065        0.197755        0.187078 
        2.13633        0.194378        0.183758 
        2.15211        0.190987        0.180498 
        2.16785        0.187111        0.177327 
        2.18349         0.18436        0.174251 
        2.19916        0.180215        0.171242 
        2.21489        0.177177        0.168294 
        2.23063        0.174121        0.165414 
         2.2463        0.171632        0.162614 
        2.26194        0.169012        0.159886 
        2.27765        0.165622        0.157207 
        2.29341         0.16265        0.154582 
        2.30914        0.159623        0.152023 
        2.32486        0.157057        0.149523 
        2.34061        0.154509        0.147075 
        2.35635        0.151941        0.144684 
        2.37203        0.151021        0.142355 
        2.38768         0.14724        0.140082 
        2.40339        0.145169         0.13785 
        2.41914        0.142488        0.135662 
        2.43483        0.140549        0.133529 
         2.4505        0.137933        0.131445 
        2.46622        0.135947        0.129399 
        2.48195        0.133822        0.127397 
        2.49759        0.132163        0.125447 
        2.51328        0.128719        0.123533 
        2.52906        0.127446        0.121647 
        2.54479        0.125591        0.119808 
        2.56049        0.123249         0.11801 
        2.57618         0.12223        0.116251 
        2.59189        0.119691        0.114525 
        2.60758         0.11836        0.112836 
        2.62325         0.11602        0.111184 
        2.63898         0.11502        0.109559 
        2.65468        0.112542         0.10797 
        2.67044         0.11114        0.106406 
        2.68618        0.109426        0.104876 
        2.70184        0.108334        0.103383 
        2.71755        0.106239        0.101915 
        2.73329        0.105012        0.100473 
        2.74897        0.103433       0.0990638 
        2.76462         0.10163       0.0976848 
        2.78034        0.100313       0.0963264 
        2.79607       0.0993019       0.0949924 
        2.81179       0.0974067       0.0936852 
        2.82749       0.0963327       0.0924041 
        2.84321        0.094814       0.0911455 
        2.85893       0.0932928       0.0899107 
        2.87462       0.0924459       0.0887009 
        2.89033       0.0908405       0.0875123 
        2.90605       0.0898655       0.0863445 
        2.92176       0.0887397       0.0851985 
        2.93747       0.0872665        0.084074 
        2.95318       0.0864649       0.0829695 
        2.96891        0.085164       0.0818844 
        2.98456       0.0839606       0.0808235 
        3.00023       0.0831891       0.0797799 
        3.01596       0.0814294       0.0787514 
        3.03164       0.0805143        0.077744 
        3.04738       0.0796414       0.0767513 
         3.0631       0.0782861       0.0757763 
        3.07883       0.0775288       0.0748181 
        3.09456       0.0767156       0.0738767 
        3.11026       0.0754787        0.072953 
        3.12596        0.074857       0.0720451 
        3.14163       0.0736557       0.0711548 
        3.15734       0.0730567       0.0702775 
        3.17308       0.0718783       0.0694128 
        3.18879        0.070995       0.0685651 
        3.20447       0.0700758       0.0677327 
         3.2202       0.0693076       0.0669116 
         3.2359       0.0684899       0.0661056 
        3.25157       0.0677416       0.0653148 
        3.26729       0.0667872       0.0645345 
        3.28304       0.0662517       0.0637654 
        3.29877       0.0651629       0.0630099 
        3.31446       0.0644088       0.0622683 
        3.33014       0.0638694       0.0615392 
        3.34585       0.0629192       0.0608207 
        3.36158       0.0622656       0.0601126 
        3.37727       0.0615367        0.059418 
        3.39294       0.0610099       0.0587351 
        3.40867       0.0602706       0.0580603 
        3.42439       0.0595839       0.0573966 
        3.44008       0.0590602       0.0567445 
        3.45578       0.0584356       0.0561021 
        3.47153       0.0578709       0.0554682 
        3.48724       0.0570065       0.0548452 
        3.50292        0.056653       0.0542333 
        3.51859       0.0559006       0.0536309 
        3.53431       0.0552574       0.0530359 
        3.55007       0.0547776       0.0524484 
        3.56577       0.0541436       0.0518721 
        3.58146       0.0536711       0.0513048 
        3.59719       0.0530817       0.0507446 
        3.61292        0.052387        0.050193 
        3.62859       0.0519677       0.0496516 
        3.64429       0.0514934       0.0491172 
        3.66003       0.0510806        0.048589 
        3.67578       0.0506513       0.0480688 
        3.69146       0.0500935       0.0475582 
        3.70712        0.049608       0.0470559 
        3.72284       0.0489648        0.046559 
        3.73853       0.0488179       0.0460701 
        3.75422       0.0480166       0.0455881 
        3.76993        0.047758       0.0451125 
        3.78564       0.0473319        0.044644 
        3.80137       0.0469212       0.0441813 
        3.81707       0.0463534       0.0437261 
        3.83279       0.0458658        0.043277 
        3.84853       0.0455145       0.0428335 
        3.86424       0.0452977       0.0423971 
        3.87992       0.0448082       0.0419673 
        3.89561       0.0442671       0.0415435 
        3.91134        0.043902       0.0411247 
        3.92704       0.0434961       0.0407122 
        3.94273        0.043121       0.0403057 
        3.95845       0.0427738       0.0399041 
        3.97418       0.0422731       0.0395078 
        3.98988       0.0417677       0.0391174 
        4.00554       0.0415519       0.0387334 
        4.02125       0.0411038       0.0383534 
        4.03698       0.0405087       0.0379779 
        4.05268       0.0402952       0.0376083 
        4.06839       0.0396656       0.0372434 
         4.0841       0.0391166       0.0368834 
        4.09983       0.0386189       0.0365277 
        4.11555       0.0381807       0.0361768 
        4.13124       0.0376752       0.0358314 
        4.14693       0.0373656       0.0354903 
        4.16266       0.0367443       0.0351528 
        4.17839       0.0364198         0.03482 
        4.19408       0.0359913       0.0344921 
        4.20977       0.0356311       0.0341684 
        4.22551       0.0352567        0.033848 
        4.24123       0.0348647       0.0335321 
        4.25691       0.0345647       0.0332211 
        4.27259       0.0342126       0.0329139 
        4.28831       0.0339144         0.03261 
        4.30404       0.0335974       0.0323096 
        4.31974        0.033261       0.0320137 
        4.33543       0.0329695       0.0317216 
        4.35116       0.0327043       0.0314325 
        4.36688        0.032474       0.0311471 
        4.38255       0.0321865       0.0308663 
        4.39825       0.0320667       0.0305883 
        4.41398       0.0318476       0.0303132 
         4.4297       0.0316708       0.0300418 
        4.44541        0.031397       0.0297738 
        4.46111        0.031195       0.0295092 
        4.47683       0.0311473       0.0292477 
        4.49251       0.0309309       0.0289898 
        4.50819       0.0308044       0.0287352 
         4.5239       0.0306956       0.0284832 
        4.53962       0.0307045       0.0282339 
        4.55535       0.0305369       0.0279875 
        4.57106       0.0304396       0.0277444 
        4.58678       0.0303126       0.0275041 
         4.6025       0.0302032       0.0272666 
        4.61821       0.0302251        0.027032 
        4.63391       0.0301691       0.0268004 
         4.6496       0.0300921       0.0265716 
        4.66532       0.0300931       0.0263452 
        4.68103        0.030255       0.0261214 
        4.69673       0.0301518       0.0259005 
        4.71241       0.0302234       0.0256824 
        4.72811       0.0301596       0.0254664 
        4.74384       0.0301737       0.0252526 
        4.75955       0.0303609       0.0250416 
        4.77525       0.0303882       0.0248331 
        4.79096       0.0304461       0.0246268 
        4.80669       0.0306174       0.0244227 
         4.8224       0.0307674       0.0242211 
        4.83809       0.0307589        0.024022 
        4.85379       0.0310163        0.023825 
         4.8695       0.0311179       0.0236301 
        4.88521       0.0313149       0.0234375 
        4.90093         0.03149       0.0232469 
        4.91663        0.031693       0.0230587 
        4.93234       0.0318305       0.0228723 
        4.94807       0.0321719       0.0226879 
        4.96377       0.0322039       0.0225058 
        4.97943        0.032704       0.0223262 
        4.99514       0.0328261        0.022148 
        5.01086        0.033106       0.0219716 
        5.02654       0.0334244       0.0217976 
        5.04227       0.0336867        0.021625 
          5.058       0.0340238       0.0214542 
        5.07371       0.0342873       0.0212855 
        5.08942       0.0346345       0.0211186 
        5.10513       0.0350063       0.0209535 
        5.12084         0.03547       0.0207901 
        5.13656       0.0360638       0.0206285 
        5.15225       0.0361766       0.0204688 
        5.16796       0.0367742       0.0203106 
        5.18369       0.0371913       0.0201539 
         5.1994          0.0376       0.0199992 
        5.21509       0.0382737       0.0198462 
        5.23079       0.0385615       0.0196946 
        5.24649       0.0391635       0.0195447 
        5.26217       0.0396056       0.0193965 
        5.27788       0.0403578       0.0192496 
        5.29359       0.0408885       0.0191043 
        5.30933       0.0414321       0.0189602 
        5.32504       0.0421086       0.0188178 
        5.34073       0.0427266        0.018677 
        5.35646       0.0432626       0.0185374 
        5.37218       0.0440596       0.0183993 
        5.38789       0.0447017       0.0182627 
        5.40357       0.0456235       0.0181277 
        5.41929       0.0464669       0.0179937 
        5.43502       0.0471384       0.0178611 
         5.4507       0.0478298       0.0177301 
        5.46639       0.0486111       0.0176005 
        5.48212       0.0494769       0.0174718 
        5.49786       0.0506664       0.0173442 
        5.51353       0.0516544       0.0172186 
        5.52921       0.0521474       0.0170941 
        5.54495       0.0532274       0.0169704 
        5.56066       0.0543869       0.0168481 
        5.57637       0.0553959        0.016727 
        5.59207       0.0563309       0.0166072 
        5.60778       0.0572344       0.0164886 
        5.62346       0.0582624       0.0163712 
        5.63916       0.0597454       0.0162549 
        5.65487       0.0607727       0.0161397 
         5.6706       0.0616975       0.0160255 
        5.68633       0.0628193       0.0159123 
        5.70203       0.0642662       0.0158004 
        5.71773       0.0660014       0.0156896 
        5.73344       0.0674031       0.0155799 
        5.74916       0.0687697       0.0154711 
        5.76486       0.0703642       0.0153634 
        5.78054       0.0722311        0.015257 
        5.79626       0.0730099       0.0151513 
          5.812       0.0751224       0.0150464 
         5.8277       0.0762159       0.0149429 
        5.84339       0.0781016       0.0148403 
        5.85911       0.0796276       0.0147385 
        5.87484       0.0811664       0.0146377 
        5.89053        0.083652        0.014538 
        5.90623       0.0850774       0.0144392 
        5.92195       0.0868632       0.0143412 
        5.93767       0.0891618       0.0142441 
        5.95336       0.0904691        0.014148 
        5.96905        0.092898       0.0140529 
        5.98476       0.0944321       0.0139585 
        6.00048       0.0970224        0.013865 
        6.01617        0.099507       0.0137725 
        6.03185        0.101451       0.0136809 
        6.04756        0.103721       0.0135899 
        6.06331        0.106834       0.0134995 
        6.07903        0.108409       0.0134102 
        6.09473         0.11059       0.0133217 
        6.11044        0.113861        0.013234 
        6.12616        0.116558       0.0131471 
        6.14186        0.118941        0.013061 
        6.15755        0.122096       0.0129757 
        6.17326        0.124394       0.0128911 
        6.18898         0.12824       0.0128073 
        6.20467        0.130385       0.0127243 
        6.22036        0.134518        0.012642 
         6.2361        0.136828       0.0125603 
         6.2518        0.140232       0.0124794 
        6.26748         0.14271       0.0123994 
        6.28319        0.146735       0.0123199 
        6.29893        0.150187        0.012241 
        6.31463        0.153611        0.012163 
        6.33033        0.157107       0.0120856 
        6.34604        0.161149       0.0120089 
        6.36177        0.165344       0.0119327 
        6.37747        0.168318       0.0118574 
