# k  (h/Mpc)    Pcb(k)  (Mpc/h)^3    Pcb_linear(k) (Mpc/h)^3   ShotnoiseSubtracted = true
      0.0200456         6309.35         6382.87 
      0.0350414         5101.21         5004.82 
      0.0492313         3933.35         3965.36 
      0.0637834          3132.6         3224.47 
      0.0800726         2373.69         2435.78 
       0.096163         1954.85         1915.89 
       0.111083         1669.39          1621.8 
       0.126058         1337.47         1348.18 
       0.142273         1108.86         1097.06 
       0.158546         956.856          934.57 
        0.17375         849.244         813.107 
       0.188953         751.187         699.025 
       0.204907         631.962         605.106 
       0.220756         576.633         534.817 
        0.23588         515.238         475.034 
         0.2514         458.494         420.918 
       0.267535         435.865         375.387 
       0.283568         383.001         337.318 
       0.299022         362.312         304.607 
       0.314451         354.365         276.175 
       0.330372         306.836          251.11 
       0.346141         284.683         229.234 
       0.361624         269.319         210.098 
       0.377134         247.844         193.173 
       0.392932         241.475         177.923 
       0.408854         227.435         164.172 
       0.424564         217.827         151.992 
       0.440253         197.056          141.09 
       0.455999         185.952         131.233 
       0.471626         181.065         122.367 
        0.48727         174.534          114.31 
       0.502856         159.748         107.009 
       0.518488         157.339         100.327 
       0.534347         147.538         94.1283 
       0.550082         143.928         88.4965 
       0.565732          140.94         83.3536 
       0.581496         130.266          78.587 
       0.597222          127.28         74.2033 
       0.612804         123.349          70.191 
       0.628434         119.733         66.4657 
       0.644267         113.704         62.9686 
       0.660051         109.966         59.7336 
       0.675724         108.352         56.7469 
       0.691403         105.635          53.964 
       0.707174         102.204         51.3538 
       0.722871         100.056         48.9279 
        0.73838         97.2094         46.6855 
       0.754018         91.5902         44.5674 
       0.769845          90.896          42.558 
        0.78569          88.114          40.671 
       0.801365         85.7359         38.9171 
       0.817031          82.776         37.2681 
       0.832809         81.2742         35.7044 
       0.848511         79.3515         34.2377 
       0.864097         77.9582         32.8636 
       0.879701           76.44         31.5639 
       0.895507         73.5233         30.3193 
       0.911279         72.6155         29.1447 
        0.92691         70.2606         28.0423 
       0.942635         68.9712         26.9911 
       0.958396         68.6018         25.9917 
       0.974128         66.9458          25.045 
       0.989692         65.3027          24.155 
        1.00528         64.0902         23.3072 
        1.02113         62.7633          22.487 
        1.03692         62.3572         21.7094 
        1.05264         60.9872         20.9724 
        1.06832         59.3368          20.271 
        1.08405         58.4027         19.5999 
        1.09979         58.1384         18.9589 
        1.11537         56.3966         18.3531 
        1.13105         55.1092         17.7703 
        1.14679          54.499         17.2106 
        1.16256         53.6672          16.674 
        1.17828          52.973         16.1622 
        1.19395         51.6701         15.6737 
         1.2097         51.6025          15.203 
        1.22537         50.4425         14.7539 
          1.241         49.6456         14.3244 
        1.25666         48.6952          13.911 
        1.27241          48.412          13.512 
        1.28819         47.1831          13.128 
        1.30392         46.8433         12.7602 
        1.31957          46.312         12.4081 
        1.33529         45.5044         12.0681 
        1.35108         44.6639         11.7395 
        1.36674         44.2258         11.4255 
         1.3824         43.4684         11.1233 
        1.39811         42.6788         10.8311 
        1.41389         42.1483         10.5483 
        1.42964         41.7475         10.2761 
        1.44531         40.8236         10.0149 
        1.46101         40.6629         9.76218 
        1.47667         40.1052         9.51899 
        1.49229         39.4374         9.28477 
        1.50793         38.9989         9.05819 
        1.52367         38.4456         8.83773 
        1.53953         38.1198         8.62315 
        1.55526         37.5332         8.41743 
        1.57092          37.014         8.21928 
        1.58662         36.4789         8.02707 
        1.60235          36.061         7.84064 
        1.61809         35.6099         7.66006 
        1.63369         35.2449         7.48678 
        1.64941          34.744         7.31763 
        1.66519         34.1714         7.15312 
        1.68085         33.8014         6.99484 
        1.69652         33.4148         6.84132 
        1.71228         33.1594         6.69155 
        1.72806         32.5428         6.54615 
        1.74368         32.2633         6.40654 
        1.75933         31.9304         6.27073 
        1.77505         31.7395         6.13823 
        1.79081         31.2409         6.00933 
         1.8065         30.7151          5.8847 
        1.82218         30.4058         5.76371 
        1.83797         30.1944         5.64531 
        1.85367         29.7304         5.53089 
        1.86928         29.6927         5.42034 
        1.88497         29.0723         5.31221 
        1.90073          28.807         5.20663 
        1.91647          28.572         5.10403 
        1.93218         28.5357         5.00441 
        1.94787         28.0978          4.9076 
        1.96363         27.6855         4.81298 
        1.97935         27.3178         4.72105 
        1.99499         27.1764         4.63204 
        2.01064         26.7929          4.5452 
         2.0264         26.4863         4.46005 
        2.04216         26.3289         4.37712 
        2.05781         26.0323         4.29683 
        2.07353         25.7512         4.21827 
        2.08928         25.3531          4.1415 
        2.10499         25.2033         4.06685 
        2.12065         24.9058         3.99427 
        2.13633          24.714         3.92341 
        2.15211         24.3017          3.8538 
        2.16785         24.2142         3.78608 
        2.18349          23.893         3.72042 
        2.19916         23.6725         3.65617 
        2.21489         23.4071         3.59324 
        2.23063         23.2905         3.53174 
         2.2463         22.9854         3.47196 
        2.26194         22.7736         3.41372 
        2.27765         22.4329         3.35651 
        2.29341         22.2664         3.30047 
        2.30914         22.0406         3.24582 
        2.32486         21.8571         3.19245 
        2.34061          21.691         3.14018 
        2.35635         21.3482         3.08914 
        2.37203         21.2333         3.03941 
        2.38768         21.0398         2.99087 
        2.40339         20.9083         2.94322 
        2.41914         20.6151          2.8965 
        2.43483         20.4588         2.85096 
         2.4505         20.1382         2.80648 
        2.46622         20.0314         2.76279 
        2.48195          19.804         2.72003 
        2.49759         19.5106         2.67841 
        2.51328         19.4761         2.63755 
        2.52906         19.3187         2.59728 
        2.54479          19.084         2.55801 
        2.56049         18.9359         2.51962 
        2.57618         18.8509         2.48206 
        2.59189         18.4974          2.4452 
        2.60758           18.36         2.40915 
        2.62325         18.1827         2.37388 
        2.63898         18.0452         2.33918 
        2.65468          17.877         2.30526 
        2.67044         17.6518         2.27186 
        2.68618         17.5777          2.2392 
        2.70184         17.3416         2.20732 
        2.71755          17.211         2.17597 
        2.73329          17.018         2.14519 
        2.74897         16.9205          2.1151 
        2.76462         16.7488         2.08566 
        2.78034         16.5494         2.05666 
        2.79607         16.4402         2.02817 
        2.81179         16.2593         2.00026 
        2.82749         16.1386         1.97291 
        2.84321          15.993         1.94604 
        2.85893         15.7542         1.91967 
        2.87462         15.7179         1.89384 
        2.89033         15.5578         1.86847 
        2.90605         15.4139         1.84353 
        2.92176         15.2295         1.81907 
        2.93747         15.1213         1.79506 
        2.95318         15.0037         1.77147 
        2.96891         14.8433         1.74831 
        2.98456         14.7309         1.72565 
        3.00023         14.5761         1.70337 
        3.01596         14.4781         1.68141 
        3.03164         14.3415          1.6599 
        3.04738         14.2155         1.63871 
         3.0631         14.0956         1.61789 
        3.07883         13.9978         1.59743 
        3.09456          13.874         1.57733 
        3.11026         13.7742         1.55761 
        3.12596          13.607         1.53823 
        3.14163         13.4836         1.51922 
        3.15734         13.3464         1.50049 
        3.17308         13.2843         1.48203 
        3.18879         13.1187         1.46393 
        3.20447         13.0459         1.44615 
         3.2202         12.9219         1.42862 
         3.2359         12.8148         1.41141 
        3.25157         12.7428         1.39453 
        3.26729         12.5838         1.37787 
        3.28304         12.4755         1.36145 
        3.29877         12.4079         1.34532 
        3.31446         12.2872         1.32948 
        3.33014         12.1994         1.31392 
        3.34585         12.0449         1.29858 
        3.36158         11.9614         1.28346 
        3.37727         11.8934         1.26863 
        3.39294         11.7879         1.25405 
        3.40867         11.6343         1.23964 
        3.42439         11.5618         1.22547 
        3.44008         11.5028         1.21155 
        3.45578         11.3489         1.19783 
        3.47153         11.2742          1.1843 
        3.48724         11.2352           1.171 
        3.50292         11.1138         1.15793 
        3.51859         11.0032         1.14507 
        3.53431          10.883         1.13236 
        3.55007         10.8353         1.11982 
        3.56577          10.705         1.10752 
        3.58146         10.6159          1.0954 
        3.59719         10.5349         1.08344 
        3.61292         10.4796         1.07166 
        3.62859         10.3907         1.06011 
        3.64429         10.2828          1.0487 
        3.66003         10.2179         1.03742 
        3.67578         10.1151         1.02631 
        3.69146         10.0692         1.01541 
        3.70712         9.96557         1.00469 
        3.72284         9.88756        0.994076 
        3.73853         9.79727        0.983638 
        3.75422         9.72661        0.973346 
        3.76993         9.61718        0.963193 
        3.78564         9.56692        0.953189 
        3.80137         9.49478         0.94331 
        3.81707         9.40679        0.933592 
        3.83279         9.31048        0.924003 
        3.84853           9.275        0.914534 
        3.86424         9.19224        0.905215 
        3.87992         9.12704         0.89604 
        3.89561         9.04877        0.886992 
        3.91134         8.96231         0.87805 
        3.92704         8.88652        0.869242 
        3.94273         8.82209        0.860563 
        3.95845         8.76042        0.851987 
        3.97418         8.67984        0.843526 
        3.98988         8.64055        0.835192 
        4.00554         8.55465        0.826992 
        4.02125         8.50602        0.818879 
        4.03698         8.42973        0.810863 
        4.05268         8.34494        0.802972 
        4.06839         8.25608         0.79518 
         4.0841         8.19962        0.787494 
        4.09983         8.16159        0.779898 
        4.11555         8.04667        0.772406 
        4.13124         8.00277        0.765033 
        4.14693         7.93889         0.75775 
        4.16266         7.87422        0.750545 
        4.17839         7.81981        0.743437 
        4.19408         7.77023        0.736438 
        4.20977         7.68396        0.729526 
        4.22551          7.6383        0.722686 
        4.24123         7.60868        0.715941 
        4.25691         7.53241          0.7093 
        4.27259         7.45725        0.702741 
        4.28831         7.40962        0.696252 
        4.30404         7.36628        0.689839 
        4.31974         7.29731        0.683521 
        4.33543         7.24694        0.677285 
        4.35116         7.15997        0.671112 
        4.36688         7.12031        0.665018 
        4.38255         7.06389        0.659023 
        4.39825         7.00815        0.653088 
        4.41398         6.95926        0.647215 
         4.4297         6.90766         0.64142 
        4.44541         6.86248        0.635697 
        4.46111         6.81805        0.630048 
        4.47683         6.75976        0.624464 
        4.49251         6.71142        0.618959 
        4.50819         6.65357        0.613522 
         4.5239         6.59298        0.608142 
        4.53962         6.54619         0.60282 
        4.55535         6.50064        0.597559 
        4.57106         6.44792        0.592368 
        4.58678         6.41237        0.587238 
         4.6025         6.35236        0.582167 
        4.61821         6.31576        0.577157 
        4.63391         6.25414        0.572213 
         4.6496         6.22198        0.567328 
        4.66532         6.16394        0.562493 
        4.68103         6.12951        0.557716 
        4.69673         6.06494        0.552999 
        4.71241         6.03456        0.548342 
        4.72811         5.99369         0.54373 
        4.74384            5.96        0.539166 
        4.75955         5.91103        0.534661 
        4.77525         5.86441         0.53021 
        4.79096         5.82336        0.525804 
        4.80669         5.76771        0.521446 
         4.8224          5.7347        0.517142 
        4.83809          5.6819        0.512892 
        4.85379         5.64598        0.508686 
         4.8695         5.61172        0.504525 
        4.88521         5.57944        0.500411 
        4.90093         5.52471        0.496343 
        4.91663         5.48193        0.492324 
        4.93234         5.46232        0.488345 
        4.94807         5.39868        0.484407 
        4.96377         5.37045         0.48052 
        4.97943         5.33213        0.476684 
        4.99514         5.28503        0.472879 
        5.01086         5.25713        0.469114 
        5.02654           5.226        0.465399 
        5.04227         5.18089        0.461713 
          5.058         5.14259        0.458066 
        5.07371         5.10409        0.454465 
        5.08942         5.07795        0.450902 
        5.10513          5.0451        0.447377 
        5.12084         5.00763        0.443888 
        5.13656         4.95634        0.440437 
        5.15225         4.93589        0.437028 
        5.16796          4.9042         0.43365 
        5.18369         4.85748        0.430304 
         5.1994         4.82403           0.427 
        5.21509         4.79517        0.423734 
        5.23079         4.76856        0.420497 
        5.24649         4.72997        0.417298 
        5.26217          4.7026        0.414133 
        5.27788         4.67285        0.410997 
        5.29359         4.63246        0.407893 
        5.30933         4.59919        0.404817 
        5.32504         4.57489        0.401777 
        5.34073         4.54635        0.398772 
        5.35646         4.50871        0.395791 
        5.37218         4.47373        0.392841 
        5.38789         4.44675        0.389925 
        5.40357         4.41737        0.387042 
        5.41929         4.38441        0.384182 
        5.43502         4.35042         0.38135 
         5.4507         4.33534        0.378554 
        5.46639         4.30295        0.375785 
        5.48212         4.26985        0.373038 
        5.49786         4.24777        0.370315 
        5.51353         4.21856        0.367632 
        5.52921         4.19165        0.364974 
        5.54495         4.15623        0.362333 
        5.56066          4.1278        0.359722 
        5.57637         4.10712        0.357137 
        5.59207         4.08123        0.354579 
        5.60778         4.04978        0.352046 
        5.62346         4.02153        0.349541 
        5.63916         3.99254        0.347058 
        5.65487         3.97275        0.344597 
         5.6706         3.95826        0.342158 
        5.68633         3.93048        0.339741 
        5.70203          3.8943        0.337353 
        5.71773         3.87002        0.334988 
        5.73344          3.8508        0.332644 
        5.74916         3.82865        0.330321 
        5.76486         3.79371        0.328023 
        5.78054         3.78678         0.32575 
        5.79626         3.74996        0.323493 
          5.812         3.72866        0.321255 
         5.8277         3.69846        0.319044 
        5.84339          3.6819        0.316854 
        5.85911          3.6548        0.314681 
        5.87484         3.63259        0.312528 
        5.89053         3.61071          0.3104 
        5.90623         3.59195         0.30829 
        5.92195         3.56517        0.306197 
        5.93767         3.54879        0.304124 
        5.95336         3.52622        0.302073 
        5.96905         3.49945        0.300042 
        5.98476         3.48573        0.298028 
        6.00048         3.45797         0.29603 
        6.01617         3.43545        0.294054 
        6.03185         3.41856        0.292099 
        6.04756          3.3819        0.290156 
        6.06331         3.37159        0.288227 
        6.07903         3.35143        0.286319 
        6.09473         3.33494        0.284431 
        6.11044         3.31073        0.282558 
        6.12616         3.28925        0.280702 
        6.14186         3.26915        0.278864 
        6.15755         3.24814        0.277043 
        6.17326         3.22795        0.275237 
        6.18898         3.21114        0.273446 
        6.20467         3.18977        0.271675 
        6.22036           3.174        0.269919 
         6.2361         3.15845        0.268174 
         6.2518          3.1358        0.266447 
        6.26748         3.11697        0.264739 
        6.28319         3.09506        0.263041 
        6.29893         3.07917        0.261357 
        6.31463         3.06284        0.259691 
        6.33033         3.04786        0.258039 
        6.34604         3.02761        0.256401 
        6.36177         3.01508        0.254775 
        6.37747         2.99044        0.253166 
