# k  (h/Mpc)    Pcb(k)  (Mpc/h)^3    Pcb_linear(k) (Mpc/h)^3   ShotnoiseSubtracted = true
      0.0200456         11098.3           11304 
      0.0350414         8576.06         8863.45 
      0.0492313         6912.58         7022.59 
      0.0637834         5798.66         5710.48 
      0.0800726         4407.72         4313.72 
       0.096163         3286.09         3393.02 
       0.111083         2739.79         2872.18 
       0.126058          2414.4          2387.6 
       0.142273          2025.9         1942.88 
       0.158546         1789.24         1655.11 
        0.17375         1464.57            1440 
       0.188953         1378.71         1237.96 
       0.204907         1285.65         1071.63 
       0.220756         1115.94         947.152 
        0.23588         989.255         841.277 
         0.2514         859.563         745.438 
       0.267535         837.572         664.804 
       0.283568         763.664         597.384 
       0.299022         714.999         539.454 
       0.314451         673.612         489.101 
       0.330372         621.392         444.712 
       0.346141         569.927          405.97 
       0.361624         545.487          372.08 
       0.377134         508.433         342.107 
       0.392932         485.525         315.098 
       0.408854         466.261         290.745 
       0.424564         442.918         269.175 
       0.440253         429.333         249.868 
       0.455999         405.111         232.411 
       0.471626         377.615          216.71 
        0.48727         368.083         202.441 
       0.502856         356.296         189.511 
       0.518488         352.276         177.677 
       0.534347         330.611           166.7 
       0.550082         312.518         156.726 
       0.565732         309.775         147.618 
       0.581496         292.974         139.176 
       0.597222         287.306         131.413 
       0.612804         277.317         124.307 
       0.628434         266.799          117.71 
       0.644267         258.444         111.516 
       0.660051         254.264         105.787 
       0.675724         250.156         100.498 
       0.691403         242.687         95.5693 
       0.707174         232.643         90.9467 
       0.722871         230.484         86.6504 
        0.73838         225.727         82.6793 
       0.754018         219.289         78.9281 
       0.769845         212.315         75.3695 
        0.78569         211.036         72.0276 
       0.801365         204.439         68.9216 
       0.817031         198.042         66.0012 
       0.832809         194.876         63.2319 
       0.848511         190.346         60.6343 
       0.864097         187.421         58.2009 
       0.879701         183.337         55.8991 
       0.895507          178.84          53.695 
       0.911279         174.513         51.6148 
        0.92691         173.226         49.6624 
       0.942635         169.492         47.8007 
       0.958396         168.834         46.0308 
       0.974128         164.107         44.3542 
       0.989692         159.867         42.7781 
        1.00528         157.296         41.2766 
        1.02113         156.523          39.824 
        1.03692         150.745          38.447 
        1.05264         148.838         37.1418 
        1.06832         146.066         35.8996 
        1.08405           143.8         34.7111 
        1.09979         143.256         33.5759 
        1.11537         138.397          32.503 
        1.13105         137.648         31.4708 
        1.14679         136.602         30.4797 
        1.16256         134.307         29.5294 
        1.17828         131.021          28.623 
        1.19395         129.756         27.7578 
         1.2097         127.498         26.9242 
        1.22537         126.204         26.1289 
          1.241         123.638         25.3682 
        1.25666         121.389         24.6361 
        1.27241         119.921         23.9295 
        1.28819         118.056         23.2495 
        1.30392         116.734         22.5981 
        1.31957         114.721         21.9745 
        1.33529         112.476         21.3723 
        1.35108         111.271         20.7904 
        1.36674         110.156         20.2343 
         1.3824         107.918         19.6992 
        1.39811          106.94         19.1817 
        1.41389          105.21         18.6808 
        1.42964         103.614         18.1988 
        1.44531         101.136         17.7361 
        1.46101         100.455         17.2886 
        1.47667         99.3503          16.858 
        1.49229         97.6509         16.4432 
        1.50793          96.761         16.0419 
        1.52367         95.6336         15.6515 
        1.53953         93.8095         15.2714 
        1.55526         92.7831         14.9071 
        1.57092         91.8916         14.5562 
        1.58662         90.2996         14.2158 
        1.60235         89.5959         13.8856 
        1.61809         88.1134         13.5658 
        1.63369         87.0755         13.2589 
        1.64941         86.1758         12.9594 
        1.66519         84.4026          12.668 
        1.68085         83.5555         12.3877 
        1.69652         81.8511         12.1159 
        1.71228         81.6818         11.8506 
        1.72806         80.3582         11.5931 
        1.74368         79.4128         11.3459 
        1.75933         78.3558         11.1054 
        1.77505         77.4222         10.8707 
        1.79081         76.1973         10.6424 
         1.8065         75.4805         10.4217 
        1.82218         74.0383         10.2074 
        1.83797         73.6715         9.99774 
        1.85367         72.6142         9.79511 
        1.86928         72.3412         9.59932 
        1.88497         70.7358         9.40783 
        1.90073         69.8464         9.22086 
        1.91647         69.4209         9.03915 
        1.93218         68.2946         8.86272 
        1.94787         67.4626         8.69128 
        1.96363         66.2693          8.5237 
        1.97935         66.1324         8.36089 
        1.99499         64.9764         8.20326 
        2.01064         64.5161         8.04947 
         2.0264          63.245         7.89866 
        2.04216         62.4065          7.7518 
        2.05781          61.767         7.60961 
        2.07353         61.0105         7.47048 
        2.08928         60.1258         7.33453 
        2.10499         59.7451         7.20233 
        2.12065         59.0579         7.07379 
        2.13633         58.4305         6.94828 
        2.15211         57.9147         6.82501 
        2.16785         57.0423         6.70509 
        2.18349         56.6792         6.58879 
        2.19916         55.8105         6.47502 
        2.21489         55.4278         6.36356 
        2.23063          54.634         6.25465 
         2.2463          54.107         6.14878 
        2.26194         53.1242         6.04563 
        2.27765         52.7204         5.94432 
        2.29341         52.1681         5.84507 
        2.30914         51.3314          5.7483 
        2.32486         50.6372         5.65377 
        2.34061         50.1567         5.56121 
        2.35635          49.781         5.47081 
        2.37203         48.9227         5.38273 
        2.38768         48.5752         5.29678 
        2.40339         47.9294          5.2124 
        2.41914         47.6613         5.12965 
        2.43483         47.1875           5.049 
         2.4505         46.6222         4.97022 
        2.46622         46.1233         4.89286 
        2.48195         45.5276         4.81713 
        2.49759         44.9276         4.74341 
        2.51328          44.397         4.67105 
        2.52906         44.0106         4.59974 
        2.54479         43.4894         4.53018 
        2.56049         42.8513          4.4622 
        2.57618         42.5056         4.39568 
        2.59189         42.0288         4.33041 
        2.60758         41.5712         4.26657 
        2.62325          41.135         4.20409 
        2.63898         40.7428         4.14265 
        2.65468         40.1125         4.08257 
        2.67044         39.7322         4.02343 
        2.68618         39.3965         3.96559 
        2.70184          38.959         3.90912 
        2.71755         38.6931         3.85361 
        2.73329         37.9653         3.79909 
        2.74897         37.6614         3.74581 
        2.76462         37.1504         3.69367 
        2.78034         36.9334          3.6423 
        2.79607         36.4745         3.59186 
        2.81179         36.1089         3.54243 
        2.82749         35.6117         3.49399 
        2.84321         35.3529          3.4464 
        2.85893         34.9191         3.39971 
        2.87462          34.468         3.35397 
        2.89033          34.185         3.30902 
        2.90605         33.8501         3.26486 
        2.92176         33.6322         3.22153 
        2.93747         33.1499         3.17901 
        2.95318         32.7585         3.13725 
        2.96891         32.3547         3.09622 
        2.98456         32.1693          3.0561 
        3.00023         31.7248         3.01664 
        3.01596         31.3724         2.97775 
        3.03164         31.2025         2.93966 
        3.04738         30.8235         2.90213 
         3.0631         30.4923         2.86526 
        3.07883         30.1759         2.82903 
        3.09456         29.8317         2.79343 
        3.11026         29.5826          2.7585 
        3.12596         29.2777         2.72417 
        3.14163         28.9248         2.69051 
        3.15734         28.7732         2.65734 
        3.17308         28.3689         2.62464 
        3.18879           28.04         2.59259 
        3.20447         27.8524         2.56111 
         3.2202         27.5092         2.53007 
         3.2359         27.2738         2.49959 
        3.25157         27.1213         2.46969 
        3.26729         26.8453         2.44018 
        3.28304         26.4999          2.4111 
        3.29877         26.1092         2.38253 
        3.31446          25.962         2.35449 
        3.33014         25.7561         2.32692 
        3.34585         25.5222         2.29976 
        3.36158         25.1068         2.27298 
        3.37727         24.9451         2.24672 
        3.39294         24.7409         2.22089 
        3.40867         24.4558         2.19538 
        3.42439         24.1672         2.17028 
        3.44008         23.9875         2.14563 
        3.45578         23.8374         2.12134 
        3.47153         23.4919         2.09737 
        3.48724         23.2345         2.07381 
        3.50292         23.1113         2.05067 
        3.51859          22.818          2.0279 
        3.53431         22.6128          2.0054 
        3.55007         22.4408         1.98318 
        3.56577         22.1846         1.96139 
        3.58146         22.0755         1.93994 
        3.59719            21.8         1.91876 
        3.61292         21.5792          1.8979 
        3.62859         21.3699         1.87743 
        3.64429         21.2028         1.85722 
        3.66003         21.0065         1.83725 
        3.67578         20.7476         1.81758 
        3.69146         20.5759         1.79827 
        3.70712         20.3736         1.77928 
        3.72284          20.229         1.76049 
        3.73853         19.9802         1.74201 
        3.75422         19.8232         1.72378 
        3.76993          19.668          1.7058 
        3.78564         19.4391         1.68808 
        3.80137         19.2902         1.67059 
        3.81707         19.1106         1.65338 
        3.83279         18.9156         1.63639 
        3.84853         18.7523         1.61962 
        3.86424         18.5833         1.60312 
        3.87992         18.4134         1.58687 
        3.89561         18.2428         1.57085 
        3.91134         18.0728         1.55501 
        3.92704          17.919         1.53941 
        3.94273         17.7545         1.52404 
        3.95845         17.5745         1.50885 
        3.97418         17.4409         1.49387 
        3.98988           17.26         1.47911 
        4.00554          17.106         1.46459 
        4.02125         16.9662         1.45022 
        4.03698         16.7843         1.43602 
        4.05268         16.6529         1.42205 
        4.06839         16.5256         1.40825 
         4.0841         16.3846         1.39464 
        4.09983         16.1782         1.38119 
        4.11555         16.0504         1.36792 
        4.13124          15.932         1.35486 
        4.14693         15.7273         1.34196 
        4.16266         15.6443          1.3292 
        4.17839         15.5115         1.31661 
        4.19408         15.3664         1.30422 
        4.20977         15.2027         1.29198 
        4.22551         15.1198         1.27986 
        4.24123         15.0047         1.26792 
        4.25691         14.8438         1.25616 
        4.27259         14.7147         1.24454 
        4.28831         14.5387         1.23305 
        4.30404         14.4557         1.22169 
        4.31974          14.309          1.2105 
        4.33543         14.1931         1.19946 
        4.35116         14.0838         1.18853 
        4.36688         13.9906         1.17774 
        4.38255         13.8554         1.16712 
        4.39825         13.7448         1.15661 
        4.41398         13.6214         1.14621 
         4.4297         13.4917         1.13594 
        4.44541         13.4081         1.12581 
        4.46111         13.2985          1.1158 
        4.47683         13.1799         1.10591 
        4.49251         13.0801         1.09617 
        4.50819         12.9546         1.08654 
         4.5239         12.8744         1.07701 
        4.53962         12.7344         1.06758 
        4.55535         12.6306         1.05827 
        4.57106         12.5338         1.04907 
        4.58678         12.4195         1.03999 
         4.6025         12.3154         1.03101 
        4.61821          12.246         1.02214 
        4.63391          12.121         1.01338 
         4.6496         12.0367         1.00473 
        4.66532          11.897        0.996165 
        4.68103         11.8185        0.987706 
        4.69673         11.7543        0.979352 
        4.71241         11.6313        0.971104 
        4.72811         11.5181        0.962937 
        4.74384         11.4555        0.954853 
        4.75955         11.3459        0.946875 
        4.77525         11.2611        0.938992 
        4.79096         11.1892        0.931189 
        4.80669         11.1001        0.923471 
         4.8224         10.9731         0.91585 
        4.83809         10.9264        0.908322 
        4.85379         10.8264        0.900874 
         4.8695         10.7501        0.893504 
        4.88521         10.6455        0.886219 
        4.90093         10.5623        0.879015 
        4.91663         10.4869        0.871897 
        4.93234         10.4053         0.86485 
        4.94807         10.3132        0.857876 
        4.96377         10.2237        0.850992 
        4.97943          10.173        0.844198 
        4.99514         10.0767        0.837461 
        5.01086         10.0022        0.830793 
        5.02654         9.92793        0.824213 
        5.04227         9.83489        0.817686 
          5.058         9.75708        0.811226 
        5.07371         9.71112        0.804849 
        5.08942         9.62722        0.798539 
        5.10513         9.53094        0.792296 
        5.12084         9.46793        0.786117 
        5.13656         9.45562        0.780005 
        5.15225         9.33415        0.773968 
        5.16796         9.23543        0.767986 
        5.18369         9.20073        0.762061 
         5.1994         9.10333         0.75621 
        5.21509         9.05681        0.750425 
        5.23079         8.99275        0.744694 
        5.24649         8.91825        0.739027 
        5.26217         8.84044        0.733423 
        5.27788         8.77546        0.727869 
        5.29359         8.72778        0.722371 
        5.30933         8.64098        0.716923 
        5.32504         8.58613         0.71154 
        5.34073         8.53245        0.706218 
        5.35646         8.45044        0.700939 
        5.37218         8.40092        0.695714 
        5.38789         8.33914         0.69055 
        5.40357          8.2878        0.685445 
        5.41929         8.21412        0.680379 
        5.43502         8.15761        0.675365 
         5.4507         8.09452        0.670413 
        5.46639         8.03191        0.665509 
        5.48212         7.98671        0.660644 
        5.49786          7.9177        0.655821 
        5.51353         7.85832         0.65107 
        5.52921         7.80969        0.646362 
        5.54495         7.75737        0.641686 
        5.56066         7.68784        0.637061 
        5.57637         7.64071        0.632483 
        5.59207         7.59776        0.627954 
        5.60778         7.52381        0.623467 
        5.62346          7.4925        0.619031 
        5.63916         7.42696        0.614633 
        5.65487         7.37384        0.610276 
         5.6706         7.31532        0.605956 
        5.68633         7.27265        0.601676 
        5.70203         7.22728        0.597446 
        5.71773         7.17127        0.593258 
        5.73344         7.11573        0.589107 
        5.74916         7.06671        0.584993 
        5.76486         7.03386        0.580923 
        5.78054         6.97704        0.576898 
        5.79626         6.91613          0.5729 
          5.812         6.86605        0.568936 
         5.8277         6.83211        0.565021 
        5.84339         6.78666        0.561143 
        5.85911         6.73931        0.557294 
        5.87484         6.69232        0.553482 
        5.89053         6.64361        0.549712 
        5.90623         6.59721        0.545976 
        5.92195         6.56029        0.542269 
        5.93767         6.51126        0.538598 
        5.95336         6.46546        0.534966 
        5.96905         6.42887         0.53137 
        5.98476         6.37105        0.527802 
        6.00048          6.3461        0.524265 
        6.01617         6.29247        0.520765 
        6.03185         6.24982        0.517302 
        6.04756         6.21514        0.513861 
        6.06331         6.16679        0.510445 
        6.07903         6.12621        0.507067 
        6.09473         6.09079        0.503722 
        6.11044         6.04137        0.500405 
        6.12616         6.00967        0.497118 
        6.14186          5.9698        0.493864 
        6.15755         5.92544        0.490639 
        6.17326         5.88479        0.487441 
        6.18898         5.85084        0.484269 
        6.20467         5.81393        0.481131 
        6.22036         5.77209        0.478022 
         6.2361          5.7215        0.474931 
         6.2518         5.69135        0.471873 
        6.26748         5.65927        0.468848 
        6.28319         5.61308        0.465842 
        6.29893         5.57536        0.462859 
        6.31463         5.54681        0.459907 
        6.33033         5.51022        0.456982 
        6.34604         5.47068        0.454081 
        6.36177         5.44364        0.451202 
        6.37747         5.40506        0.448353 
