# k  (h/Mpc)    Pcb(k)  (Mpc/h)^3    Pcb_linear(k) (Mpc/h)^3   ShotnoiseSubtracted = true
      0.0200456         7603.39         7694.39 
      0.0350414         6156.34         6033.18 
      0.0492313         4732.01         4780.14 
      0.0637834         3763.57         3887.02 
      0.0800726         2850.75         2936.27 
       0.096163         2357.84         2309.56 
       0.111083         2014.59         1955.04 
       0.126058         1610.61         1625.19 
       0.142273         1340.43         1322.48 
       0.158546         1156.53          1126.6 
        0.17375         1028.17          980.18 
       0.188953         915.178         842.656 
       0.204907         771.692         729.439 
       0.220756         703.711         644.709 
        0.23588         629.649         572.641 
         0.2514         560.536         507.405 
       0.267535         536.292         452.519 
       0.283568         470.798         406.628 
       0.299022         447.284         367.196 
       0.314451         442.225         332.922 
       0.330372         381.414         302.707 
       0.346141         354.326         276.336 
       0.361624         336.656         253.268 
       0.377134         311.337         232.866 
       0.392932         303.347         214.481 
       0.408854         286.725         197.905 
       0.424564         275.417         183.222 
       0.440253         248.748          170.08 
       0.455999         236.497         158.198 
       0.471626         232.524          147.51 
        0.48727         222.928         137.798 
       0.502856         203.853         128.997 
       0.518488         202.636         120.942 
       0.534347         189.125         113.469 
       0.550082         184.897          106.68 
       0.565732         182.046         100.481 
       0.581496         168.982         94.7346 
       0.597222         165.443         89.4502 
       0.612804         160.472         84.6135 
       0.628434         155.239         80.1227 
       0.644267         147.761          75.907 
       0.660051         143.441         72.0073 
       0.675724         142.234         68.4069 
       0.691403         138.179         65.0522 
       0.707174         133.741         61.9057 
       0.722871         131.404         58.9813 
        0.73838         128.868         56.2782 
       0.754018         120.906         53.7249 
       0.769845         120.356         51.3026 
        0.78569         117.076         49.0278 
       0.801365         113.826         46.9136 
       0.817031          110.11         44.9258 
       0.832809         108.136         43.0408 
       0.848511         105.675         41.2726 
       0.864097         103.801         39.6162 
       0.879701         102.096         38.0495 
       0.895507         98.3018         36.5492 
       0.911279         96.9466         35.1332 
        0.92691         94.0339         33.8043 
       0.942635         92.2878          32.537 
       0.958396         91.5016         31.3323 
       0.974128         89.4368         30.1911 
       0.989692         87.5363         29.1182 
        1.00528         85.9064         28.0962 
        1.02113         83.8923         27.1074 
        1.03692         83.6338         26.1702 
        1.05264         82.1228         25.2817 
        1.06832         79.3825         24.4361 
        1.08405         78.7731         23.6272 
        1.09979         78.0761         22.8545 
        1.11537         75.8569         22.1242 
        1.13105         74.5434         21.4216 
        1.14679         73.4045         20.7469 
        1.16256         72.0181         20.1001 
        1.17828         71.2956         19.4831 
        1.19395         69.3319         18.8942 
         1.2097         69.5648         18.3268 
        1.22537         67.8538         17.7854 
          1.241         67.2138         17.2677 
        1.25666         65.2587         16.7693 
        1.27241         65.0697         16.2884 
        1.28819         64.1346         15.8255 
        1.30392         62.9968         15.3821 
        1.31957         62.6023         14.9576 
        1.33529         61.5842         14.5477 
        1.35108         60.6443         14.1516 
        1.36674         59.9037         13.7731 
         1.3824         58.9245         13.4088 
        1.39811         57.8834         13.0566 
        1.41389         56.9765         12.7157 
        1.42964         56.5686         12.3876 
        1.44531          55.519         12.0726 
        1.46101         55.0691         11.7681 
        1.47667         54.2961         11.4749 
        1.49229          53.537         11.1926 
        1.50793         52.9564         10.9194 
        1.52367         52.3294         10.6537 
        1.53953         51.6273          10.395 
        1.55526         50.9144          10.147 
        1.57092         50.3408         9.90813 
        1.58662         49.6592         9.67642 
        1.60235         49.0407         9.45169 
        1.61809         48.2856           9.234 
        1.63369         47.7206         9.02512 
        1.64941         47.1828         8.82122 
        1.66519         46.3319          8.6229 
        1.68085         46.0575          8.4321 
        1.69652         45.1056         8.24704 
        1.71228          44.991         8.06649 
        1.72806          44.125         7.89121 
        1.74368         43.7382         7.72292 
        1.75933         43.3234          7.5592 
        1.77505         43.0177         7.39948 
        1.79081         42.2994          7.2441 
         1.8065         41.5987         7.09385 
        1.82218         40.9501         6.94801 
        1.83797         40.6794         6.80527 
        1.85367         40.1736         6.66735 
        1.86928         40.1153         6.53408 
        1.88497           39.16         6.40373 
        1.90073         38.7639         6.27646 
        1.91647         38.5747         6.15278 
        1.93218          38.464         6.03269 
        1.94787         37.8225         5.91599 
        1.96363         37.0689         5.80192 
        1.97935         36.8591          5.6911 
        1.99499         36.4825          5.5838 
        2.01064         36.0182         5.47912 
         2.0264         35.6291         5.37647 
        2.04216         35.2892          5.2765 
        2.05781          34.802         5.17971 
        2.07353         34.4279         5.08501 
        2.08928         34.2358         4.99247 
        2.10499          33.874         4.90249 
        2.12065         33.4321           4.815 
        2.13633         33.1778         4.72956 
        2.15211         32.5707         4.64566 
        2.16785         32.2462         4.56402 
        2.18349         31.9151         4.48487 
        2.19916         31.5902         4.40742 
        2.21489         31.2884         4.33155 
        2.23063         31.1068         4.25742 
         2.2463         30.7558         4.18536 
        2.26194         30.3264         4.11515 
        2.27765         29.9926         4.04619 
        2.29341          29.712         3.97863 
        2.30914         29.3744         3.91276 
        2.32486         29.0277         3.84841 
        2.34061          28.826         3.78541 
        2.35635         28.4991         3.72388 
        2.37203         28.2433         3.66392 
        2.38768         28.0321         3.60542 
        2.40339         27.7977         3.54798 
        2.41914         27.4305         3.49166 
        2.43483         27.2982         3.43676 
         2.4505         26.7921         3.38314 
        2.46622         26.5405         3.33047 
        2.48195         26.2966         3.27893 
        2.49759         25.8982         3.22875 
        2.51328         25.7979          3.1795 
        2.52906         25.5868         3.13096 
        2.54479          25.249         3.08361 
        2.56049         25.1871         3.03734 
        2.57618         24.8831         2.99205 
        2.59189         24.4739         2.94763 
        2.60758         24.3779         2.90417 
        2.62325         24.0189         2.86165 
        2.63898         23.8774         2.81983 
        2.65468         23.6365         2.77893 
        2.67044         23.3523         2.73867 
        2.68618          23.098          2.6993 
        2.70184         22.8537         2.66086 
        2.71755         22.6974         2.62308 
        2.73329         22.4099         2.58597 
        2.74897         22.2816          2.5497 
        2.76462         22.1047         2.51421 
        2.78034         21.7542         2.47924 
        2.79607         21.5683         2.44491 
        2.81179         21.3915         2.41127 
        2.82749          21.213         2.37829 
        2.84321          21.051          2.3459 
        2.85893         20.7297         2.31412 
        2.87462         20.6113         2.28298 
        2.89033         20.4337         2.25239 
        2.90605         20.1691         2.22233 
        2.92176         19.9097         2.19284 
        2.93747         19.7992         2.16389 
        2.95318         19.6786         2.13547 
        2.96891         19.3785         2.10754 
        2.98456         19.3126         2.08023 
        3.00023         18.9882         2.05337 
        3.01596          18.841          2.0269 
        3.03164         18.6436         2.00097 
        3.04738         18.4945         1.97542 
         3.0631         18.3513         1.95033 
        3.07883         18.1584         1.92567 
        3.09456         18.0112         1.90144 
        3.11026         17.8447         1.87766 
        3.12596         17.6139         1.85429 
        3.14163         17.4803         1.83138 
        3.15734         17.3307          1.8088 
        3.17308         17.2275         1.78654 
        3.18879         16.9425         1.76473 
        3.20447         16.8453          1.7433 
         3.2202         16.6741         1.72217 
         3.2359         16.5643         1.70142 
        3.25157         16.4247         1.68107 
        3.26729         16.2276         1.66099 
        3.28304         16.1479         1.64119 
        3.29877          16.052         1.62175 
        3.31446         15.8277         1.60266 
        3.33014         15.6977         1.58389 
        3.34585         15.5729          1.5654 
        3.36158         15.4116         1.54718 
        3.37727         15.2326          1.5293 
        3.39294         15.1368         1.51172 
        3.40867         15.0011         1.49435 
        3.42439         14.8717         1.47727 
        3.44008         14.7351         1.46049 
        3.45578         14.5865         1.44395 
        3.47153         14.4669         1.42764 
        3.48724         14.3428          1.4116 
        3.50292          14.249         1.39585 
        3.51859         14.1057         1.38035 
        3.53431         13.9732         1.36504 
        3.55007          13.835         1.34992 
        3.56577         13.7638         1.33508 
        3.58146         13.6064         1.32048 
        3.59719         13.4796         1.30606 
        3.61292          13.381         1.29186 
        3.62859         13.2405         1.27793 
        3.64429         13.1347         1.26418 
        3.66003         13.0292         1.25058 
        3.67578         12.9283         1.23719 
        3.69146         12.8645         1.22405 
        3.70712         12.6828         1.21112 
        3.72284         12.5981         1.19833 
        3.73853         12.4897         1.18575 
        3.75422         12.3604         1.17334 
        3.76993         12.2431          1.1611 
        3.78564         12.1621         1.14904 
        3.80137         12.0347         1.13714 
        3.81707         11.9486         1.12542 
        3.83279         11.8652         1.11386 
        3.84853         11.7274         1.10245 
        3.86424         11.6441         1.09121 
        3.87992         11.5563         1.08015 
        3.89561         11.4647         1.06925 
        3.91134         11.3698         1.05847 
        3.92704         11.2781         1.04785 
        3.94273         11.1892         1.03739 
        3.95845         11.0765         1.02705 
        3.97418         10.9746         1.01685 
        3.98988         10.9041          1.0068 
        4.00554         10.8025        0.996918 
        4.02125         10.7051        0.987138 
        4.03698          10.639        0.977474 
        4.05268         10.5467        0.967962 
        4.06839         10.4312        0.958569 
         4.0841         10.3663        0.949303 
        4.09983           10.28        0.940147 
        4.11555         10.1904        0.931116 
        4.13124         10.1078        0.922228 
        4.14693         9.99891        0.913448 
        4.16266         9.95165        0.904762 
        4.17839         9.85067        0.896195 
        4.19408         9.78489        0.887757 
        4.20977         9.67324        0.879425 
        4.22551         9.61223        0.871179 
        4.24123          9.5571        0.863048 
        4.25691          9.4471        0.855043 
        4.27259         9.37608        0.847137 
        4.28831         9.29041        0.839314 
        4.30404         9.25894        0.831583 
        4.31974         9.14701        0.823966 
        4.33543         9.08601        0.816449 
        4.35116         8.99983        0.809008 
        4.36688          8.9312        0.801662 
        4.38255         8.86953        0.794435 
        4.39825         8.77594        0.787281 
        4.41398         8.70825        0.780201 
         4.4297         8.64709        0.773215 
        4.44541         8.58174        0.766316 
        4.46111         8.49567        0.759507 
        4.47683         8.44824        0.752775 
        4.49251         8.37946        0.746139 
        4.50819         8.31688        0.739584 
         4.5239         8.25564        0.733099 
        4.53962         8.16712        0.726683 
        4.55535         8.11718        0.720341 
        4.57106         8.04148        0.714084 
        4.58678         7.99743          0.7079 
         4.6025         7.92339        0.701787 
        4.61821         7.85729        0.695748 
        4.63391           7.797        0.689788 
         4.6496         7.74158        0.683899 
        4.66532         7.68137        0.678071 
        4.68103         7.60769        0.672312 
        4.69673         7.56205        0.666627 
        4.71241         7.48568        0.661012 
        4.72811         7.43093        0.655453 
        4.74384         7.40577        0.649951 
        4.75955         7.34344         0.64452 
        4.77525         7.29217        0.639154 
        4.79096         7.23214        0.633843 
        4.80669         7.15519         0.62859 
         4.8224         7.11897        0.623402 
        4.83809         7.07086        0.618278 
        4.85379         7.01269        0.613208 
         4.8695         6.98518        0.608191 
        4.88521         6.90227        0.603233 
        4.90093          6.8469        0.598329 
        4.91663         6.81377        0.593484 
        4.93234         6.75127        0.588687 
        4.94807          6.7015         0.58394 
        4.96377         6.65463        0.579254 
        4.97943         6.59054         0.57463 
        4.99514          6.5443        0.570044 
        5.01086         6.50917        0.565505 
        5.02654         6.45168        0.561026 
        5.04227         6.41434        0.556583 
          5.058         6.34651        0.552186 
        5.07371         6.34077        0.547845 
        5.08942         6.28167         0.54355 
        5.10513         6.23448        0.539301 
        5.12084         6.17913        0.535095 
        5.13656         6.13141        0.530935 
        5.15225         6.08878        0.526826 
        5.16796         6.05222        0.522753 
        5.18369         6.01024        0.518721 
         5.1994         5.96328        0.514738 
        5.21509         5.91396          0.5108 
        5.23079         5.88999        0.506899 
        5.24649         5.82638        0.503041 
        5.26217         5.80911        0.499227 
        5.27788         5.74717        0.495447 
        5.29359         5.72739        0.491705 
        5.30933         5.66943        0.487996 
        5.32504         5.63246        0.484332 
        5.34073         5.59895        0.480709 
        5.35646         5.56501        0.477116 
        5.37218         5.51652        0.473559 
        5.38789         5.47026        0.470044 
        5.40357         5.43093        0.466569 
        5.41929         5.39631        0.463121 
        5.43502         5.36324        0.459708 
         5.4507         5.32664        0.456337 
        5.46639         5.27976           0.453 
        5.48212         5.26144        0.449688 
        5.49786         5.21689        0.446405 
        5.51353         5.18691        0.443171 
        5.52921         5.14442        0.439966 
        5.54495         5.10942        0.436784 
        5.56066         5.06745        0.433636 
        5.57637         5.04468        0.430519 
        5.59207         5.00072        0.427436 
        5.60778         4.97272        0.424382 
        5.62346         4.94091        0.421363 
        5.63916         4.90093        0.418369 
        5.65487         4.86704        0.415403 
         5.6706         4.84519        0.412463 
        5.68633         4.80769        0.409549 
        5.70203         4.77543         0.40667 
        5.71773          4.7431        0.403819 
        5.73344          4.7076        0.400994 
        5.74916         4.68656        0.398193 
        5.76486          4.6467        0.395423 
        5.78054         4.61677        0.392684 
        5.79626         4.58025        0.389962 
          5.812         4.55803        0.387264 
         5.8277         4.53151        0.384599 
        5.84339         4.49648         0.38196 
        5.85911         4.46488        0.379339 
        5.87484         4.42955        0.376744 
        5.89053         4.40849        0.374179 
        5.90623         4.37446        0.371636 
        5.92195         4.35798        0.369112 
        5.93767         4.31578        0.366613 
        5.95336         4.30102        0.364141 
        5.96905         4.27284        0.361693 
        5.98476         4.24743        0.359265 
        6.00048         4.21364        0.356857 
        6.01617         4.18305        0.354475 
        6.03185         4.16064        0.352117 
        6.04756         4.13132        0.349776 
        6.06331         4.10794         0.34745 
        6.07903         4.08341        0.345151 
        6.09473         4.05852        0.342874 
        6.11044         4.02086        0.340616 
        6.12616         4.00662        0.338379 
        6.14186         3.97865        0.336164 
        6.15755         3.94952        0.333969 
        6.17326         3.92773        0.331792 
        6.18898         3.89661        0.329633 
        6.20467         3.86991        0.327497 
        6.22036         3.85306         0.32538 
         6.2361         3.83863        0.323276 
         6.2518         3.80816        0.321195 
        6.26748         3.78005        0.319136 
        6.28319         3.75771         0.31709 
        6.29893         3.74017        0.315059 
        6.31463         3.71805         0.31305 
        6.33033         3.69249        0.311059 
        6.34604         3.66977        0.309084 
        6.36177         3.65257        0.307125 
        6.37747         3.63397        0.305185 
