# k  (h/Mpc)    Pcb(k)  (Mpc/h)^3    Pcb_linear(k) (Mpc/h)^3   ShotnoiseSubtracted = true
      0.0200456         18764.5         19186.3 
      0.0350414           14360           15044 
      0.0492313         11597.9         11919.5 
      0.0637834          9823.8         9692.44 
      0.0800726         7462.14         7321.71 
       0.096163         5501.49         5758.99 
       0.111083         4602.83         4874.98 
       0.126058         4081.71         4052.49 
       0.142273         3446.03         3297.67 
       0.158546         3131.47         2809.23 
        0.17375         2543.46         2444.12 
       0.188953          2441.1          2101.2 
       0.204907         2284.67         1818.89 
       0.220756         2003.96         1607.61 
        0.23588          1790.1         1427.91 
         0.2514         1558.18         1265.24 
       0.267535         1555.75         1128.38 
       0.283568         1413.36         1013.94 
       0.299022         1336.15          915.62 
       0.314451         1273.61         830.155 
       0.330372         1171.08         754.813 
       0.346141         1120.27         689.056 
       0.361624          1072.9         631.534 
       0.377134         998.405         580.661 
       0.392932         963.042         534.818 
       0.408854         939.192         493.484 
       0.424564         873.527         456.873 
       0.440253         856.689         424.103 
       0.455999         826.162         394.473 
       0.471626         790.389         367.824 
        0.48727         760.951         343.605 
       0.502856         739.467         321.659 
       0.518488         730.051         301.573 
       0.534347         684.423          282.94 
       0.550082         666.271         266.012 
       0.565732         664.352         250.553 
       0.581496         626.145         236.225 
       0.597222         615.943         223.048 
       0.612804         602.678         210.987 
       0.628434          584.58          199.79 
       0.644267          568.65         189.277 
       0.660051          549.87         179.553 
       0.675724          546.44         170.575 
       0.691403          527.21         162.211 
       0.707174          510.13         154.364 
       0.722871         504.799         147.072 
        0.73838         494.848         140.332 
       0.754018         482.971         133.965 
       0.769845         472.767         127.925 
        0.78569         464.673         122.253 
       0.801365         452.288         116.981 
       0.817031         439.986         112.024 
       0.832809         436.148         107.324 
       0.848511         425.699         102.915 
       0.864097         413.341         98.7848 
       0.879701         408.045          94.878 
       0.895507         404.499          91.137 
       0.911279         392.266         87.6062 
        0.92691         386.548         84.2924 
       0.942635         377.378         81.1325 
       0.958396         366.726         78.1285 
       0.974128         361.869         75.2828 
       0.989692         357.108         72.6076 
        1.00528         348.858         70.0591 
        1.02113         346.759         67.5936 
        1.03692         336.562         65.2564 
        1.05264         334.037         63.0411 
        1.06832          324.92         60.9326 
        1.08405         320.236         58.9154 
        1.09979         315.275         56.9887 
        1.11537         309.044         55.1676 
        1.13105         302.791         53.4157 
        1.14679         297.928         51.7334 
        1.16256         290.189         50.1205 
        1.17828         289.635          48.582 
        1.19395         282.679         47.1136 
         1.2097         279.223         45.6986 
        1.22537         272.056         44.3487 
          1.241         271.092         43.0577 
        1.25666         264.271          41.815 
        1.27241         261.335         40.6157 
        1.28819         256.959         39.4616 
        1.30392         250.985         38.3559 
        1.31957         250.093         37.2975 
        1.33529         244.969         36.2754 
        1.35108         239.562         35.2876 
        1.36674         236.388         34.3438 
         1.3824         234.669         33.4355 
        1.39811         231.032         32.5572 
        1.41389         228.429         31.7071 
        1.42964         225.021         30.8889 
        1.44531         221.113         30.1037 
        1.46101         218.206         29.3441 
        1.47667         214.524         28.6132 
        1.49229          212.06         27.9091 
        1.50793         207.886          27.228 
        1.52367         205.394         26.5653 
        1.53953         202.136         25.9203 
        1.55526         197.395          25.302 
        1.57092         196.838         24.7064 
        1.58662         193.795         24.1286 
        1.60235         190.591         23.5682 
        1.61809         188.256         23.0254 
        1.63369         185.382         22.5045 
        1.64941         181.642         21.9961 
        1.66519         180.175         21.5016 
        1.68085         177.913         21.0258 
        1.69652         174.581         20.5643 
        1.71228         171.267         20.1141 
        1.72806         169.635         19.6771 
        1.74368         166.895         19.2574 
        1.75933         164.437         18.8492 
        1.77505         163.015         18.4509 
        1.79081         161.184         18.0635 
         1.8065         158.415         17.6888 
        1.82218         155.912         17.3252 
        1.83797         154.669         16.9692 
        1.85367         152.081         16.6253 
        1.86928         149.589          16.293 
        1.88497         147.587          15.968 
        1.90073         146.447         15.6506 
        1.91647         144.487         15.3422 
        1.93218         142.394         15.0428 
        1.94787         140.002         14.7518 
        1.96363         137.608         14.4673 
        1.97935         136.868          14.191 
        1.99499         134.308         13.9235 
        2.01064         133.238         13.6624 
         2.0264         131.144         13.4065 
        2.04216         129.432         13.1572 
        2.05781         128.043         12.9158 
        2.07353         126.371         12.6797 
        2.08928         124.313         12.4489 
        2.10499         122.534         12.2246 
        2.12065         121.012         12.0064 
        2.13633         120.271         11.7934 
        2.15211         117.682         11.5842 
        2.16785         116.026         11.3806 
        2.18349         115.067         11.1832 
        2.19916          113.48         10.9901 
        2.21489         112.347         10.8009 
        2.23063         110.234         10.6161 
         2.2463         108.715         10.4364 
        2.26194         107.423         10.2613 
        2.27765         106.539         10.0893 
        2.29341         105.014         9.92088 
        2.30914         103.965         9.75663 
        2.32486         102.535         9.59618 
        2.34061         101.125         9.43908 
        2.35635         99.8248         9.28565 
        2.37203         98.8227         9.13615 
        2.38768         97.2871         8.99027 
        2.40339         96.5303         8.84704 
        2.41914         95.3268          8.7066 
        2.43483         94.0436         8.56971 
         2.4505         93.1241           8.436 
        2.46622         91.8299         8.30468 
        2.48195          90.722         8.17615 
        2.49759         89.5546         8.05103 
        2.51328         88.6907         7.92821 
        2.52906         87.2394         7.80717 
        2.54479         86.4075         7.68912 
        2.56049         85.4492         7.57373 
        2.57618          84.339         7.46082 
        2.59189         83.4344         7.35004 
        2.60758         82.4634         7.24168 
        2.62325            81.2         7.13564 
        2.63898         80.0631         7.03136 
        2.65468         79.6885         6.92938 
        2.67044            78.4         6.82899 
        2.68618         77.4488         6.73082 
        2.70184         76.9826         6.63498 
        2.71755         76.1574         6.54076 
        2.73329         74.9432         6.44823 
        2.74897         74.1355         6.35779 
        2.76462         73.1238         6.26929 
        2.78034         72.5463          6.1821 
        2.79607         71.3124         6.09649 
        2.81179         70.5596         6.01259 
        2.82749         69.7307         5.93037 
        2.84321         69.2784          5.8496 
        2.85893         68.3116         5.77035 
        2.87462         67.3816         5.69271 
        2.89033         66.5919         5.61643 
        2.90605         65.8444         5.54148 
        2.92176         65.1558         5.46793 
        2.93747         64.5283         5.39576 
        2.95318         63.6242         5.32488 
        2.96891         63.1562         5.25524 
        2.98456         62.4211         5.18715 
        3.00023         61.6886         5.12017 
        3.01596         61.0665         5.05416 
        3.03164         60.3217         4.98951 
        3.04738         59.7904          4.9258 
         3.0631         59.0885         4.86322 
        3.07883         58.4022         4.80173 
        3.09456         57.8584         4.74131 
        3.11026         57.0261         4.68203 
        3.12596         56.3909         4.62376 
        3.14163         55.8247         4.56662 
        3.15734          55.298         4.51032 
        3.17308         54.7442         4.45483 
        3.18879           54.09         4.40042 
        3.20447         53.3853           4.347 
         3.2202         53.0875          4.2943 
         3.2359         52.2617         4.24257 
        3.25157         51.9334         4.19182 
        3.26729         51.4168         4.14174 
        3.28304         50.8918         4.09238 
        3.29877         50.1881         4.04389 
        3.31446         49.7838          3.9963 
        3.33014         49.3392         3.94951 
        3.34585           48.59          3.9034 
        3.36158         48.2913         3.85795 
        3.37727         47.8059         3.81337 
        3.39294         47.2424         3.76954 
        3.40867         46.8998         3.72624 
        3.42439         46.3444         3.68364 
        3.44008         45.8928         3.64179 
        3.45578         45.2835         3.60056 
        3.47153         44.9453         3.55988 
        3.48724         44.4234          3.5199 
        3.50292         44.1455         3.48062 
        3.51859         43.7058         3.44196 
        3.53431         43.1961         3.40377 
        3.55007          42.676         3.36607 
        3.56577         42.5207         3.32909 
        3.58146         41.9244         3.29267 
        3.59719         41.4778         3.25672 
        3.61292         41.0077         3.22132 
        3.62859         40.6235         3.18658 
        3.64429         40.3828         3.15228 
        3.66003         39.8205         3.11838 
        3.67578          39.421         3.08499 
        3.69146         39.0993         3.05222 
        3.70712          38.709         3.01999 
        3.72284         38.2297         2.98809 
        3.73853         37.9514         2.95672 
        3.75422         37.4905         2.92578 
        3.76993         37.1516         2.89526 
        3.78564         36.8535         2.86519 
        3.80137         36.5949          2.8355 
        3.81707         36.2422         2.80629 
        3.83279         35.9472         2.77746 
        3.84853         35.4766           2.749 
        3.86424         35.1572         2.72099 
        3.87992         34.8621         2.69341 
        3.89561         34.6344         2.66621 
        3.91134         34.1377         2.63933 
        3.92704         33.9604         2.61286 
        3.94273         33.6001         2.58677 
        3.95845         33.3046         2.56099 
        3.97418         33.0839         2.53556 
        3.98988         32.6812          2.5105 
        4.00554         32.4077         2.48586 
        4.02125         32.1174         2.46147 
        4.03698         31.8332         2.43737 
        4.05268         31.5616         2.41365 
        4.06839          31.247         2.39023 
         4.0841          30.936         2.36713 
        4.09983         30.7574          2.3443 
        4.11555         30.3959         2.32178 
        4.13124         30.1132         2.29961 
        4.14693         29.7861         2.27772 
        4.16266         29.6108         2.25606 
        4.17839         29.3165          2.2347 
        4.19408         29.0144         2.21366 
        4.20977         28.8067         2.19288 
        4.22551         28.5986         2.17232 
        4.24123         28.2902         2.15205 
        4.25691         28.0644         2.13209 
        4.27259          27.826         2.11237 
        4.28831         27.5443         2.09287 
        4.30404         27.3517         2.07359 
        4.31974         27.0512          2.0546 
        4.33543         26.8258         2.03585 
        4.35116         26.6171          2.0173 
        4.36688         26.4152         1.99898 
        4.38255         26.1676         1.98096 
        4.39825         25.9478         1.96312 
        4.41398         25.7113         1.94546 
         4.4297         25.5358         1.92805 
        4.44541          25.209         1.91084 
        4.46111         25.0351         1.89386 
        4.47683          24.922         1.87708 
        4.49251         24.6229         1.86053 
        4.50819         24.4371         1.84419 
         4.5239         24.2529         1.82801 
        4.53962         24.0164         1.81202 
        4.55535          23.835          1.7962 
        4.57106         23.5916          1.7806 
        4.58678         23.4683         1.76518 
         4.6025         23.2563         1.74994 
        4.61821         23.0782         1.73488 
        4.63391         22.8382         1.72002 
         4.6496         22.6947         1.70533 
        4.66532         22.4562          1.6908 
        4.68103         22.2593         1.67644 
        4.69673         22.1406         1.66226 
        4.71241         21.9888         1.64826 
        4.72811         21.7436          1.6344 
        4.74384         21.5357         1.62068 
        4.75955         21.4202         1.60714 
        4.77525         21.1766         1.59376 
        4.79096          21.083         1.58051 
        4.80669          20.936         1.56742 
         4.8224         20.7395         1.55448 
        4.83809         20.5471          1.5417 
        4.85379          20.324         1.52906 
         4.8695          20.209         1.51655 
        4.88521         20.0487         1.50419 
        4.90093          19.881         1.49196 
        4.91663         19.7077         1.47988 
        4.93234         19.5863         1.46792 
        4.94807         19.3921         1.45608 
        4.96377         19.2894          1.4444 
        4.97943         19.1303         1.43286 
        4.99514         18.9144         1.42143 
        5.01086         18.8177         1.41011 
        5.02654         18.6845         1.39894 
        5.04227         18.4922         1.38786 
          5.058         18.3096          1.3769 
        5.07371          18.236         1.36608 
        5.08942         18.0717         1.35537 
        5.10513         17.9455         1.34477 
        5.12084         17.7819         1.33428 
        5.13656         17.6491         1.32391 
        5.15225         17.5476         1.31366 
        5.16796         17.4015         1.30351 
        5.18369         17.2904         1.29345 
         5.1994         17.1405         1.28352 
        5.21509          16.961          1.2737 
        5.23079         16.8762         1.26397 
        5.24649         16.7246         1.25436 
        5.26217           16.62         1.24484 
        5.27788         16.4692         1.23542 
        5.29359         16.3234         1.22609 
        5.30933          16.229         1.21684 
        5.32504            16.1          1.2077 
        5.34073         15.9803         1.19867 
        5.35646         15.8733         1.18971 
        5.37218         15.7106         1.18084 
        5.38789         15.5969         1.17208 
        5.40357         15.5127         1.16341 
        5.41929         15.4012         1.15481 
        5.43502         15.2657          1.1463 
         5.4507         15.1534          1.1379 
        5.46639          15.019         1.12957 
        5.48212         14.9239         1.12132 
        5.49786         14.7812         1.11313 
        5.51353         14.7002         1.10507 
        5.52921         14.6154         1.09707 
        5.54495         14.5026         1.08914 
        5.56066         14.3774         1.08129 
        5.57637         14.2992         1.07352 
        5.59207         14.1766         1.06583 
        5.60778         14.0915         1.05822 
        5.62346         13.9795         1.05069 
        5.63916         13.8802         1.04322 
        5.65487         13.7588         1.03583 
         5.6706         13.6728         1.02849 
        5.68633         13.5821         1.02123 
        5.70203         13.4995         1.01405 
        5.71773         13.3772         1.00694 
        5.73344         13.2865        0.999896 
        5.74916         13.1898        0.992913 
        5.76486         13.0987        0.986005 
        5.78054         13.0252        0.979174 
        5.79626         12.8949        0.972388 
          5.812         12.8127         0.96566 
         5.8277         12.7127        0.959015 
        5.84339         12.6411        0.952433 
        5.85911         12.5258        0.945899 
        5.87484         12.4676        0.939428 
        5.89053         12.3993        0.933031 
        5.90623         12.2869         0.92669 
        5.92195         12.1861        0.920397 
        5.93767         12.0909        0.914166 
        5.95336         12.0217        0.908002 
        5.96905         11.9432        0.901898 
        5.98476          11.869        0.895842 
        6.00048         11.7687        0.889839 
        6.01617         11.7087        0.883899 
        6.03185         11.6158         0.87802 
        6.04756         11.5272        0.872181 
        6.06331         11.4689        0.866382 
        6.07903         11.3368        0.860648 
        6.09473         11.2973        0.854972 
        6.11044          11.208        0.849341 
        6.12616         11.1269        0.843762 
        6.14186          11.067        0.838239 
        6.15755         10.9661        0.832765 
        6.17326         10.9179        0.827337 
        6.18898         10.8389        0.821953 
        6.20467         10.7676        0.816628 
        6.22036         10.6847         0.81135 
         6.2361         10.6173        0.806104 
         6.2518         10.5389        0.800913 
        6.26748         10.4883        0.795779 
        6.28319         10.3989        0.790677 
        6.29893         10.3385        0.785614 
        6.31463          10.264        0.780604 
        6.33033         10.1843         0.77564 
        6.34604         10.1378        0.770715 
        6.36177         10.0613        0.765828 
        6.37747         9.98746        0.760993 
