# k  (h/Mpc)    Pcb(k)  (Mpc/h)^3    Pcb_linear(k) (Mpc/h)^3   ShotnoiseSubtracted = true
      0.0200456         9691.22         9812.49 
      0.0350414         7862.75         7693.99 
      0.0492313            6015         6096.01 
      0.0637834         4775.37         4957.03 
      0.0800726         3615.24         3744.56 
       0.096163         3008.03         2945.33 
       0.111083          2571.2         2493.22 
       0.126058         2050.53         2072.58 
       0.142273         1716.77         1686.53 
       0.158546         1479.55         1436.73 
        0.17375         1318.95            1250 
       0.188953         1185.12         1074.62 
       0.204907         1003.31         930.238 
       0.220756         913.845         822.183 
        0.23588         819.071         730.277 
         0.2514         730.182         647.083 
       0.267535         703.177         577.088 
       0.283568         617.614         518.564 
       0.299022         589.466         468.278 
       0.314451         591.272         424.568 
       0.330372         508.671         386.036 
       0.346141         472.717         352.406 
       0.361624         451.314         322.987 
       0.377134         421.041         296.969 
       0.392932         409.469         273.523 
       0.408854         388.362         252.384 
       0.424564         374.741          233.66 
       0.440253          338.86           216.9 
       0.455999         324.426         201.746 
       0.471626         323.197         188.117 
        0.48727         307.798         175.731 
       0.502856          282.14         164.507 
       0.518488         282.639         154.234 
       0.534347         262.687         144.705 
       0.550082         256.359         136.047 
       0.565732         254.118         128.141 
       0.581496         239.128         120.813 
       0.597222         233.485         114.074 
       0.612804           227.2         107.906 
       0.628434         218.462         102.179 
       0.644267         208.731         96.8025 
       0.660051          204.17         91.8294 
       0.675724         202.855         87.2378 
       0.691403         196.493         82.9597 
       0.707174         190.276          78.947 
       0.722871          187.23         75.2176 
        0.73838         185.494         71.7704 
       0.754018         174.439         68.5142 
       0.769845         174.068         65.4251 
        0.78569         169.712         62.5241 
       0.801365          165.42         59.8279 
       0.817031         160.517         57.2929 
       0.832809         157.965          54.889 
       0.848511         154.211         52.6341 
       0.864097         151.024         50.5217 
       0.879701         149.503         48.5237 
       0.895507         145.069         46.6104 
       0.911279         141.653         44.8046 
        0.92691         138.864         43.1099 
       0.942635         136.657         41.4938 
       0.958396         134.393         39.9574 
       0.974128         131.395         38.5021 
       0.989692         128.438         37.1339 
        1.00528         126.797         35.8305 
        1.02113         123.564         34.5695 
        1.03692         122.846         33.3743 
        1.05264         121.027         32.2413 
        1.06832         117.533         31.1629 
        1.08405         116.471         30.1312 
        1.09979         115.507         29.1459 
        1.11537         112.356         28.2145 
        1.13105         111.311         27.3185 
        1.14679         108.991         26.4581 
        1.16256         106.968         25.6333 
        1.17828         105.777         24.8464 
        1.19395         102.852         24.0954 
         1.2097         102.829         23.3717 
        1.22537         100.206         22.6814 
          1.241         99.8229         22.0211 
        1.25666         96.4316         21.3856 
        1.27241         95.4917         20.7722 
        1.28819         94.7809         20.1819 
        1.30392         92.8651         19.6164 
        1.31957         91.8671         19.0752 
        1.33529         90.5488         18.5524 
        1.35108         89.9074         18.0472 
        1.36674         88.3095         17.5646 
         1.3824         87.5431            17.1 
        1.39811         85.2792         16.6508 
        1.41389         84.3363          16.216 
        1.42964         83.1399         15.7976 
        1.44531         82.1505          15.396 
        1.46101         81.2316         15.0075 
        1.47667         80.2834         14.6337 
        1.49229         79.3519         14.2736 
        1.50793         78.0937         13.9253 
        1.52367         77.4442         13.5864 
        1.53953         76.0614         13.2565 
        1.55526          74.974         12.9402 
        1.57092         74.6876         12.6356 
        1.58662         73.4802         12.3401 
        1.60235          72.387         12.0535 
        1.61809         71.4295         11.7759 
        1.63369         70.4328         11.5095 
        1.64941         70.1817         11.2495 
        1.66519         68.5493         10.9966 
        1.68085         68.0664         10.7533 
        1.69652         66.5237         10.5173 
        1.71228         66.3022          10.287 
        1.72806         65.5105         10.0635 
        1.74368         64.5877         9.84887 
        1.75933         63.9644         9.64009 
        1.77505         63.4061          9.4364 
        1.79081         62.2241         9.23824 
         1.8065         61.9837         9.04664 
        1.82218         60.1919         8.86065 
        1.83797         59.9938         8.67862 
        1.85367         59.3592         8.50273 
        1.86928         58.7952         8.33277 
        1.88497         57.7597         8.16654 
        1.90073          57.035         8.00424 
        1.91647         56.5238          7.8465 
        1.93218         56.2297         7.69336 
        1.94787         55.3213         7.54454 
        1.96363         54.3854         7.39907 
        1.97935         53.9268         7.25774 
        1.99499         53.3457          7.1209 
        2.01064         52.7997         6.98741 
         2.0264          52.302          6.8565 
        2.04216         51.4401         6.72901 
        2.05781         50.8149         6.60558 
        2.07353          50.098         6.48481 
        2.08928          49.842         6.36679 
        2.10499          49.243         6.25204 
        2.12065         48.7297         6.14046 
        2.13633         48.2865         6.03151 
        2.15211         47.5191         5.92451 
        2.16785         46.8422          5.8204 
        2.18349          46.234         5.71946 
        2.19916         45.8212         5.62069 
        2.21489         45.4789         5.52394 
        2.23063         44.7335          5.4294 
         2.2463         44.4245          5.3375 
        2.26194         43.9256         5.24796 
        2.27765         43.3586         5.16002 
        2.29341          42.735         5.07386 
        2.30914         42.4026         4.98985 
        2.32486         41.7135          4.9078 
        2.34061         41.4897         4.82745 
        2.35635         40.8925         4.74898 
        2.37203         40.5256         4.67252 
        2.38768         40.1458         4.59791 
        2.40339          39.825         4.52466 
        2.41914          39.295         4.45284 
        2.43483         38.7026         4.38283 
         2.4505          38.402         4.31444 
        2.46622          38.024         4.24728 
        2.48195         37.6077         4.18155 
        2.49759         37.0968         4.11756 
        2.51328         36.7514         4.05474 
        2.52906         36.3924         3.99284 
        2.54479         35.9644         3.93246 
        2.56049         35.7066         3.87345 
        2.57618         35.2789          3.8157 
        2.59189         34.7341         3.75905 
        2.60758         34.4195         3.70363 
        2.62325         34.2373          3.6494 
        2.63898         33.8631         3.59606 
        2.65468         33.3865         3.54391 
        2.67044         33.0585         3.49257 
        2.68618         32.8871         3.44236 
        2.70184         32.3402         3.39334 
        2.71755         32.1195         3.34516 
        2.73329         31.6515         3.29783 
        2.74897         31.2913         3.25158 
        2.76462         31.0076         3.20632 
        2.78034         30.7869         3.16173 
        2.79607         30.3665         3.11794 
        2.81179         30.1708         3.07504 
        2.82749         29.7643         3.03298 
        2.84321         29.5314         2.99167 
        2.85893         29.2587         2.95115 
        2.87462         28.8839         2.91144 
        2.89033         28.6169         2.87242 
        2.90605         28.4187         2.83409 
        2.92176         28.1543         2.79648 
        2.93747         27.7761         2.75957 
        2.95318         27.5492         2.72332 
        2.96891         27.3153          2.6877 
        2.98456         26.9568         2.65288 
        3.00023          26.679         2.61862 
        3.01596         26.3952         2.58486 
        3.03164         26.1673          2.5518 
        3.04738         25.9274         2.51921 
         3.0631         25.6792         2.48721 
        3.07883         25.3422         2.45576 
        3.09456         25.1207         2.42486 
        3.11026         24.8044         2.39454 
        3.12596         24.5427         2.36474 
        3.14163         24.3333         2.33552 
        3.15734         24.1324         2.30672 
        3.17308         23.8772         2.27834 
        3.18879         23.6109         2.25052 
        3.20447         23.3577          2.2232 
         3.2202         23.1531         2.19625 
         3.2359           22.96         2.16979 
        3.25157         22.7486         2.14383 
        3.26729         22.5347         2.11822 
        3.28304         22.2527         2.09298 
        3.29877         22.0519         2.06818 
        3.31446          21.821         2.04384 
        3.33014         21.6113         2.01991 
        3.34585         21.4928         1.99632 
        3.36158         21.1983         1.97308 
        3.37727         21.0485         1.95028 
        3.39294         20.8445         1.92786 
        3.40867         20.6427         1.90572 
        3.42439         20.4671         1.88393 
        3.44008         20.2333         1.86253 
        3.45578         20.0805         1.84144 
        3.47153         19.8171         1.82064 
        3.48724         19.7277         1.80019 
        3.50292         19.4886          1.7801 
        3.51859         19.3163         1.76033 
        3.53431         19.1876          1.7408 
        3.55007         18.9503         1.72152 
        3.56577         18.7772          1.7026 
        3.58146          18.586         1.68398 
        3.59719         18.4674         1.66559 
        3.61292         18.2399         1.64749 
        3.62859         18.0498         1.62972 
        3.64429         17.8746         1.61218 
        3.66003         17.7906         1.59484 
        3.67578          17.631         1.57777 
        3.69146         17.4102         1.56101 
        3.70712          17.256         1.54452 
        3.72284         17.1065         1.52821 
        3.73853         16.9666         1.51216 
        3.75422          16.772         1.49634 
        3.76993         16.6829         1.48073 
        3.78564         16.5279         1.46535 
        3.80137         16.3601         1.45017 
        3.81707         16.1701         1.43523 
        3.83279         16.0428         1.42048 
        3.84853          15.889         1.40593 
        3.86424         15.7219          1.3916 
        3.87992         15.6327          1.3775 
        3.89561         15.4581         1.36359 
        3.91134         15.3594         1.34984 
        3.92704         15.2222          1.3363 
        3.94273         15.0766         1.32296 
        3.95845         14.8887         1.30977 
        3.97418         14.7976         1.29677 
        3.98988           14.66         1.28395 
        4.00554         14.5829         1.27135 
        4.02125         14.3824         1.25888 
        4.03698         14.2891         1.24655 
        4.05268         14.1837         1.23442 
        4.06839         14.0322         1.22244 
         4.0841          13.918         1.21063 
        4.09983         13.7311         1.19895 
        4.11555         13.6671         1.18743 
        4.13124         13.5471          1.1761 
        4.14693         13.4079          1.1649 
        4.16266         13.3308         1.15382 
        4.17839         13.1825          1.1429 
        4.19408         13.0702         1.13214 
        4.20977         12.9799         1.12151 
        4.22551         12.8405           1.111 
        4.24123         12.7462         1.10063 
        4.25691         12.6354         1.09042 
        4.27259         12.5045         1.08034 
        4.28831         12.4423         1.07036 
        4.30404         12.3552          1.0605 
        4.31974         12.2278         1.05079 
        4.33543         12.0938          1.0412 
        4.35116         12.0315         1.03171 
        4.36688         11.9069         1.02234 
        4.38255         11.8034         1.01313 
        4.39825         11.7259           1.004 
        4.41398          11.592        0.994973 
         4.4297         11.5134        0.986065 
        4.44541          11.405        0.977267 
        4.46111         11.3233        0.968583 
        4.47683         11.2075        0.959998 
        4.49251         11.1211        0.951535 
        4.50819         11.0309        0.943176 
         4.5239          10.967        0.934906 
        4.53962         10.8702        0.926724 
        4.55535         10.7633        0.918636 
        4.57106         10.7159        0.910656 
        4.58678         10.5961         0.90277 
         4.6025         10.5101        0.894974 
        4.61821         10.4215        0.887273 
        4.63391         10.3441        0.879671 
         4.6496          10.273        0.872162 
        4.66532         10.2004        0.864729 
        4.68103         10.0903        0.857386 
        4.69673         10.0151        0.850135 
        4.71241         9.92314        0.842975 
        4.72811         9.85499        0.835885 
        4.74384          9.7713        0.828868 
        4.75955         9.69101        0.821943 
        4.77525         9.61029          0.8151 
        4.79096         9.54161        0.808326 
        4.80669         9.46107        0.801627 
         4.8224          9.3786        0.795011 
        4.83809         9.32663        0.788476 
        4.85379         9.23966        0.782011 
         4.8695         9.16357        0.775613 
        4.88521         9.08678         0.76929 
        4.90093         9.02725        0.763036 
        4.91663         8.94238        0.756857 
        4.93234          8.8783         0.75074 
        4.94807         8.80712        0.744686 
        4.96377         8.75276        0.738711 
        4.97943         8.67733        0.732813 
        4.99514         8.60618        0.726965 
        5.01086         8.57613        0.721176 
        5.02654         8.48211        0.715465 
        5.04227         8.40058        0.709799 
          5.058         8.32919        0.704191 
        5.07371         8.29117        0.698656 
        5.08942         8.20332        0.693178 
        5.10513         8.15259        0.687759 
        5.12084         8.11076        0.682395 
        5.13656         8.04026         0.67709 
        5.15225         7.96394         0.67185 
        5.16796         7.90997        0.666656 
        5.18369         7.84309        0.661513 
         5.1994         7.80262        0.656434 
        5.21509         7.73917        0.651412 
        5.23079         7.66392        0.646437 
        5.24649         7.62297        0.641518 
        5.26217         7.55969        0.636653 
        5.27788         7.50937        0.631832 
        5.29359         7.45591         0.62706 
        5.30933         7.39319        0.622331 
        5.32504         7.33765        0.617658 
        5.34073         7.29904        0.613038 
        5.35646         7.22879        0.608456 
        5.37218         7.18029         0.60392 
        5.38789         7.11373        0.599438 
        5.40357         7.07122        0.595006 
        5.41929         7.03047        0.590609 
        5.43502         6.97724        0.586256 
         5.4507         6.93018        0.581957 
        5.46639         6.87814        0.577701 
        5.48212         6.81846        0.573477 
        5.49786         6.78194        0.569291 
        5.51353          6.7309        0.565167 
        5.52921         6.67522         0.56108 
        5.54495          6.6122        0.557021 
        5.56066         6.58566        0.553006 
        5.57637         6.53933        0.549032 
        5.59207          6.5001        0.545101 
        5.60778         6.43988        0.541206 
        5.62346         6.40737        0.537355 
        5.63916         6.34815        0.533537 
        5.65487         6.30336        0.529755 
         5.6706         6.28212        0.526005 
        5.68633         6.22585         0.52229 
        5.70203         6.19045        0.518618 
        5.71773          6.1511        0.514982 
        5.73344         6.08566        0.511379 
        5.74916         6.05527        0.507808 
        5.76486           6.015        0.504275 
        5.78054          5.9677        0.500781 
        5.79626         5.92918        0.497311 
          5.812         5.88532         0.49387 
         5.8277         5.84553        0.490471 
        5.84339          5.8114        0.487105 
        5.85911         5.75772        0.483764 
        5.87484         5.72867        0.480454 
        5.89053         5.68127        0.477182 
        5.90623         5.65836        0.473939 
        5.92195         5.61638        0.470721 
        5.93767         5.57164        0.467534 
        5.95336         5.53806        0.464382 
        5.96905         5.50204         0.46126 
        5.98476         5.45862        0.458162 
        6.00048         5.43575        0.455092 
        6.01617         5.39431        0.452054 
        6.03185         5.36119        0.449048 
        6.04756         5.31981        0.446061 
        6.06331          5.2913        0.443096 
        6.07903         5.23837        0.440163 
        6.09473         5.21367         0.43726 
        6.11044         5.18764        0.434381 
        6.12616         5.14226        0.431527 
        6.14186         5.10954        0.428703 
        6.15755         5.07632        0.425903 
        6.17326         5.04985        0.423127 
        6.18898         5.00108        0.420374 
        6.20467         4.98456         0.41765 
        6.22036         4.94651         0.41495 
         6.2361         4.91848        0.412268 
         6.2518         4.88519        0.409613 
        6.26748         4.85552        0.406987 
        6.28319         4.81887        0.404378 
        6.29893         4.79881        0.401788 
        6.31463         4.75582        0.399226 
        6.33033         4.73572        0.396687 
        6.34604         4.70954        0.394169 
        6.36177         4.66754        0.391669 
        6.37747         4.63846        0.389196 
