# k  (h/Mpc)    Pcb(k)  (Mpc/h)^3    Pcb_linear(k) (Mpc/h)^3   ShotnoiseSubtracted = true
      0.0200456         26119.8         26799.2 
      0.0350414           19838         21013.3 
      0.0492313         16034.1           16649 
      0.0637834         13685.7         13538.3 
      0.0800726         10392.6         10226.9 
       0.096163         7608.93         8044.08 
       0.111083         6406.85          6809.3 
       0.126058         5687.04         5660.47 
       0.142273         4825.95         4606.13 
       0.158546         4480.09         3923.89 
        0.17375          3649.8         3413.91 
       0.188953         3536.09         2934.93 
       0.204907          3312.2          2540.6 
       0.220756         2920.71         2245.49 
        0.23588         2640.82         1994.48 
         0.2514         2322.27         1767.27 
       0.267535         2332.84          1576.1 
       0.283568         2117.25         1416.26 
       0.299022         2021.27         1278.93 
       0.314451         1923.13         1159.55 
       0.330372         1755.65         1054.31 
       0.346141         1741.51         962.464 
       0.361624         1669.67         882.117 
       0.377134         1565.08         811.059 
       0.392932          1499.8         747.027 
       0.408854         1471.89         689.292 
       0.424564         1357.32         638.154 
       0.440253         1328.73         592.381 
       0.455999         1315.41         550.994 
       0.471626         1259.47         513.771 
        0.48727         1216.35         479.943 
       0.502856         1163.94         449.289 
       0.518488         1172.51         421.233 
       0.534347         1094.83         395.207 
       0.550082         1085.23         371.561 
       0.565732         1065.92         349.969 
       0.581496         1019.49         329.956 
       0.597222         991.989          311.55 
       0.612804         979.057         294.704 
       0.628434         953.409         279.063 
       0.644267         928.426          264.38 
       0.660051          909.93         250.798 
       0.675724         901.029         238.257 
       0.691403         875.536         226.573 
       0.707174         845.407         215.614 
       0.722871         823.907         205.429 
        0.73838         811.596         196.014 
       0.754018         798.851         187.121 
       0.769845         784.129         178.684 
        0.78569         773.275         170.761 
       0.801365         750.782         163.398 
       0.817031         739.451         156.474 
       0.832809         726.778         149.909 
       0.848511         710.739          143.75 
       0.864097         688.926         137.981 
       0.879701         677.779         132.524 
       0.895507         675.322         127.299 
       0.911279         664.025         122.367 
        0.92691          649.73         117.739 
       0.942635         630.756         113.325 
       0.958396         621.145         109.129 
       0.974128         613.547         105.154 
       0.989692         604.444         101.417 
        1.00528         583.624         97.8576 
        1.02113         584.068         94.4138 
        1.03692         569.819         91.1493 
        1.05264         560.045          88.055 
        1.06832         548.532         85.1098 
        1.08405         540.043         82.2922 
        1.09979         532.075          79.601 
        1.11537         523.503         77.0574 
        1.13105         516.566         74.6103 
        1.14679         504.264         72.2605 
        1.16256         494.352         70.0077 
        1.17828         491.155         67.8587 
        1.19395         481.521         65.8076 
         1.2097         468.004         63.8312 
        1.22537         462.442         61.9457 
          1.241         453.678         60.1424 
        1.25666         450.126         58.4066 
        1.27241         440.392         56.7315 
        1.28819         428.847         55.1194 
        1.30392         425.609         53.5749 
        1.31957         415.971         52.0967 
        1.33529         412.755          50.669 
        1.35108         403.227         49.2893 
        1.36674         396.933          47.971 
         1.3824         392.304         46.7023 
        1.39811         383.369         45.4754 
        1.41389         379.543          44.288 
        1.42964         375.557         43.1452 
        1.44531         371.205         42.0484 
        1.46101         362.088         40.9875 
        1.47667         354.791         39.9665 
        1.49229         352.667         38.9831 
        1.50793         341.472         38.0317 
        1.52367         341.213         37.1061 
        1.53953         331.465         36.2052 
        1.55526          331.04         35.3414 
        1.57092         327.814         34.5095 
        1.58662         320.783         33.7025 
        1.60235         315.447         32.9197 
        1.61809         311.235         32.1615 
        1.63369         305.655          31.434 
        1.64941         299.178         30.7238 
        1.66519         296.825         30.0331 
        1.68085         293.748         29.3686 
        1.69652         289.686          28.724 
        1.71228         281.973         28.0951 
        1.72806         278.769         27.4847 
        1.74368         273.467         26.8985 
        1.75933          271.32         26.3283 
        1.77505         266.237          25.772 
        1.79081         263.617         25.2308 
         1.8065         258.334         24.7075 
        1.82218         255.575         24.1995 
        1.83797         252.902         23.7024 
        1.85367          248.49          23.222 
        1.86928         243.589         22.7578 
        1.88497         241.904         22.3038 
        1.90073         237.434         21.8606 
        1.91647         234.475         21.4298 
        1.93218         231.045         21.0115 
        1.94787         227.969         20.6051 
        1.96363         224.735         20.2078 
        1.97935         220.861         19.8218 
        1.99499         218.205         19.4481 
        2.01064         214.969         19.0835 
         2.0264         212.673          18.726 
        2.04216         210.785         18.3778 
        2.05781         207.543         18.0407 
        2.07353         204.015         17.7108 
        2.08928         200.199         17.3885 
        2.10499         198.093         17.0751 
        2.12065         195.735         16.7704 
        2.13633         193.456         16.4728 
        2.15211          190.58         16.1806 
        2.16785         188.919         15.8963 
        2.18349         186.252         15.6206 
        2.19916         182.892         15.3508 
        2.21489         181.592         15.0866 
        2.23063         178.698         14.8284 
         2.2463         175.429         14.5774 
        2.26194         173.817         14.3328 
        2.27765          170.57         14.0927 
        2.29341         168.757         13.8574 
        2.30914         166.316         13.6279 
        2.32486         165.349         13.4038 
        2.34061         161.525         13.1844 
        2.35635         161.048         12.9701 
        2.37203         158.399         12.7613 
        2.38768           155.8         12.5575 
        2.40339         154.416         12.3574 
        2.41914         152.815         12.1613 
        2.43483         150.618         11.9701 
         2.4505         148.917         11.7833 
        2.46622         147.055         11.5999 
        2.48195         144.949         11.4203 
        2.49759         143.951         11.2456 
        2.51328         141.912          11.074 
        2.52906         140.239          10.905 
        2.54479         138.748         10.7401 
        2.56049         136.553         10.5789 
        2.57618         135.565         10.4212 
        2.59189         133.499         10.2664 
        2.60758         131.468         10.1151 
        2.62325         130.189         9.96697 
        2.63898         128.641         9.82131 
        2.65468         127.416         9.67886 
        2.67044         126.037         9.53864 
        2.68618         124.474         9.40152 
        2.70184         122.803         9.26764 
        2.71755          121.51         9.13604 
        2.73329         119.555         9.00679 
        2.74897         118.788         8.88047 
        2.76462          117.35         8.75685 
        2.78034         116.246         8.63508 
        2.79607         114.578         8.51549 
        2.81179         113.788         8.39831 
        2.82749         112.293         8.28346 
        2.84321         110.329         8.17064 
        2.85893         109.327         8.05995 
        2.87462         108.179          7.9515 
        2.89033          106.82         7.84495 
        2.90605          106.02         7.74026 
        2.92176         104.422         7.63753 
        2.93747         103.327         7.53673 
        2.95318         102.528         7.43772 
        2.96891         101.138         7.34044 
        2.98456         100.047         7.24534 
        3.00023         99.3591         7.15178 
        3.01596         97.8883         7.05959 
        3.03164         96.9347         6.96928 
        3.04738         96.0231         6.88029 
         3.0631         94.7885         6.79288 
        3.07883         93.5866         6.70699 
        3.09456         92.4763          6.6226 
        3.11026         92.2951         6.53979 
        3.12596         90.8281         6.45841 
        3.14163         89.7217          6.3786 
        3.15734         88.9355         6.29995 
        3.17308          88.092         6.22244 
        3.18879         86.7825         6.14644 
        3.20447         86.0457         6.07183 
         3.2202         85.1227         5.99822 
         3.2359          84.357         5.92597 
        3.25157         83.3162         5.85507 
        3.26729         82.3774         5.78512 
        3.28304         81.8112         5.71618 
        3.29877          80.961         5.64845 
        3.31446         79.9223         5.58197 
        3.33014         79.4593         5.51662 
        3.34585         78.5863         5.45221 
        3.36158         77.6646         5.38873 
        3.37727          76.647         5.32647 
        3.39294         75.9636         5.26524 
        3.40867         75.1534         5.20476 
        3.42439         74.3009         5.14526 
        3.44008         73.4958          5.0868 
        3.45578         72.7876         5.02921 
        3.47153         72.3195         4.97239 
        3.48724          71.396         4.91654 
        3.50292         70.8775         4.86169 
        3.51859         70.1556         4.80769 
        3.53431         69.5854         4.75435 
        3.55007          68.725         4.70168 
        3.56577         67.9939         4.65002 
        3.58146         67.5442         4.59916 
        3.59719         66.7905         4.54894 
        3.61292         66.1091         4.49949 
        3.62859         65.3947         4.45097 
        3.64429         64.6614         4.40306 
        3.66003          64.178         4.35571 
        3.67578         63.4297         4.30908 
        3.69146         63.0029          4.2633 
        3.70712         62.2833         4.21827 
        3.72284         61.6996         4.17373 
        3.73853          61.163         4.12991 
        3.75422         60.5312         4.08669 
        3.76993         60.1558         4.04407 
        3.78564         59.2311         4.00206 
        3.80137         58.8749         3.96058 
        3.81707         58.3324         3.91978 
        3.83279         57.5878         3.87952 
        3.84853         57.2687         3.83976 
        3.86424         56.7058         3.80064 
        3.87992         56.1898         3.76212 
        3.89561         55.5937         3.72413 
        3.91134         54.9658         3.68658 
        3.92704         54.7411          3.6496 
        3.94273         54.0399         3.61316 
        3.95845         53.6356         3.57716 
        3.97418         53.0237         3.54163 
        3.98988         52.6581         3.50664 
        4.00554         52.2203         3.47221 
        4.02125         51.7185         3.43815 
        4.03698         51.2305         3.40449 
        4.05268         50.7395         3.37136 
        4.06839         50.2976         3.33864 
         4.0841          49.843         3.30637 
        4.09983         49.3422         3.27448 
        4.11555         48.8659         3.24303 
        4.13124         48.4366         3.21207 
        4.14693          48.108         3.18149 
        4.16266         47.6122         3.15124 
        4.17839         47.3098          3.1214 
        4.19408           46.84         3.09201 
        4.20977         46.4362         3.06299 
        4.22551         46.0541         3.03427 
        4.24123         45.5562         3.00595 
        4.25691         45.2775         2.97807 
        4.27259         44.6907         2.95053 
        4.28831          44.456         2.92329 
        4.30404         44.0032         2.89636 
        4.31974         43.5843         2.86983 
        4.33543         43.3039         2.84365 
        4.35116         42.7755         2.81773 
        4.36688         42.4527         2.79215 
        4.38255         42.0921         2.76697 
        4.39825         41.7159         2.74206 
        4.41398         41.3829          2.7174 
         4.4297         41.0804         2.69307 
        4.44541         40.6978         2.66904 
        4.46111         40.3531         2.64532 
        4.47683         39.9315         2.62188 
        4.49251         39.7519         2.59876 
        4.50819         39.3479         2.57593 
         4.5239         39.0038         2.55335 
        4.53962         38.5697           2.531 
        4.55535         38.3854         2.50891 
        4.57106         38.1471         2.48712 
        4.58678         37.6813         2.46558 
         4.6025         37.3234         2.44429 
        4.61821          37.027         2.42325 
        4.63391         36.7635         2.40249 
         4.6496         36.3366         2.38198 
        4.66532         36.0741         2.36168 
        4.68103         35.7831         2.34163 
        4.69673         35.5605         2.32182 
        4.71241         35.2032         2.30227 
        4.72811         35.0161         2.28291 
        4.74384          34.688         2.26374 
        4.75955         34.3898         2.24483 
        4.77525         34.0733         2.22614 
        4.79096         33.7807         2.20764 
        4.80669         33.5402         2.18934 
         4.8224         33.2905         2.17127 
        4.83809         32.9175         2.15343 
        4.85379         32.7066         2.13577 
         4.8695         32.4285          2.1183 
        4.88521         32.1731         2.10103 
        4.90093         31.8888         2.08395 
        4.91663          31.685         2.06707 
        4.93234         31.4401         2.05036 
        4.94807         31.1353         2.03383 
        4.96377         30.9483         2.01751 
        4.97943         30.6011         2.00141 
        4.99514         30.4537         1.98543 
        5.01086         30.1729         1.96962 
        5.02654         29.9801         1.95403 
        5.04227         29.6794         1.93855 
          5.058         29.4898         1.92324 
        5.07371         29.2586         1.90812 
        5.08942         29.0235         1.89316 
        5.10513           28.83         1.87836 
        5.12084         28.5669         1.86371 
        5.13656         28.3612         1.84922 
        5.15225          28.125         1.83491 
        5.16796         27.8941         1.82072 
        5.18369         27.7008         1.80668 
         5.1994         27.5263          1.7928 
        5.21509         27.2999         1.77909 
        5.23079         27.0992          1.7655 
        5.24649         26.8456         1.75207 
        5.26217         26.6597         1.73878 
        5.27788         26.4605         1.72561 
        5.29359         26.2656         1.71258 
        5.30933         26.0524         1.69966 
        5.32504         25.8302          1.6869 
        5.34073         25.6406         1.67428 
        5.35646         25.4134         1.66177 
        5.37218         25.2578         1.64938 
        5.38789         25.0335         1.63714 
        5.40357         24.8427         1.62504 
        5.41929          24.681         1.61303 
        5.43502         24.5097         1.60114 
         5.4507         24.3434          1.5894 
        5.46639         24.1448         1.57777 
        5.48212         24.0322         1.56624 
        5.49786         23.8061          1.5548 
        5.51353         23.6952         1.54354 
        5.52921         23.4383         1.53238 
        5.54495         23.3437         1.52129 
        5.56066         23.1436         1.51033 
        5.57637         22.9755         1.49948 
        5.59207         22.7837         1.48874 
        5.60778         22.5988          1.4781 
        5.62346         22.4092         1.46758 
        5.63916         22.2835         1.45716 
        5.65487         22.1669         1.44683 
         5.6706          21.939         1.43659 
        5.68633         21.7863         1.42644 
        5.70203          21.645         1.41641 
        5.71773         21.4825         1.40648 
        5.73344         21.3657         1.39664 
        5.74916         21.1623         1.38689 
        5.76486         21.0496         1.37724 
        5.78054         20.8673          1.3677 
        5.79626         20.7561         1.35822 
          5.812         20.5848         1.34882 
         5.8277         20.4404         1.33954 
        5.84339         20.3006         1.33034 
        5.85911         20.1392         1.32122 
        5.87484          20.028         1.31218 
        5.89053         19.8953         1.30324 
        5.90623         19.7116         1.29439 
        5.92195         19.6049          1.2856 
        5.93767         19.4592         1.27689 
        5.95336         19.3174         1.26829 
        5.96905         19.1573         1.25976 
        5.98476         19.0232          1.2513 
        6.00048         18.9171         1.24291 
        6.01617         18.8098         1.23462 
        6.03185         18.6699         1.22641 
        6.04756         18.5078         1.21825 
        6.06331         18.4147         1.21015 
        6.07903         18.2572         1.20214 
        6.09473         18.1316         1.19421 
        6.11044         17.9898         1.18635 
        6.12616         17.8951         1.17856 
        6.14186         17.7555         1.17084 
        6.15755         17.6558          1.1632 
        6.17326         17.5188         1.15561 
        6.18898         17.3981         1.14809 
        6.20467         17.2874         1.14065 
        6.22036         17.1404         1.13328 
         6.2361         17.0343         1.12595 
         6.2518         16.9411          1.1187 
        6.26748         16.7856         1.11153 
        6.28319         16.6895         1.10441 
        6.29893         16.6055         1.09733 
        6.31463          16.464         1.09034 
        6.33033         16.3397          1.0834 
        6.34604         16.2147         1.07652 
        6.36177         16.1199          1.0697 
        6.37747         16.0637         1.06294 
