# k  (h/Mpc)    Pcb(k)  (Mpc/h)^3    Pcb_linear(k) (Mpc/h)^3   ShotnoiseSubtracted = true
      0.0200456         19676.5         19977.1 
      0.0350414         16075.1         15664.1 
      0.0492313         12061.8         12410.8 
      0.0637834         9530.36         10091.9 
      0.0800726         7201.21         7623.48 
       0.096163         6114.99         5996.35 
       0.111083          5216.7          5075.9 
       0.126058         4149.72         4219.52 
       0.142273         3558.66         3433.58 
       0.158546         3033.19         2925.01 
        0.17375         2745.94         2544.86 
       0.188953         2556.98          2187.8 
       0.204907         2197.42         1893.86 
       0.220756         1997.83         1673.87 
        0.23588         1796.94         1486.76 
         0.2514         1626.63         1317.39 
       0.267535         1565.41         1174.88 
       0.283568         1399.09         1055.73 
       0.299022         1338.87         953.358 
       0.314451         1389.05          864.37 
       0.330372         1230.14         785.923 
       0.346141         1131.57         717.456 
       0.361624         1086.41         657.563 
       0.377134         1039.88         604.593 
       0.392932         996.782         556.861 
       0.408854         951.974         513.823 
       0.424564          933.06         475.703 
       0.440253         866.136         441.582 
       0.455999         829.334         410.731 
       0.471626         840.647         382.984 
        0.48727         795.784         357.767 
       0.502856         760.336         334.916 
       0.518488         741.645         314.003 
       0.534347         708.347         294.602 
       0.550082         677.608         276.976 
       0.565732         668.037          260.88 
       0.581496         653.004         245.961 
       0.597222         638.558         232.241 
       0.612804         625.313         219.683 
       0.628434         598.647         208.024 
       0.644267         581.401         197.078 
       0.660051         574.283         186.954 
       0.675724         562.593         177.606 
       0.691403         546.291         168.896 
       0.707174         528.912         160.727 
       0.722871         520.045         153.134 
        0.73838         512.817         146.116 
       0.754018         498.574         139.487 
       0.769845          491.62         133.198 
        0.78569         480.798         127.292 
       0.801365         465.142         121.803 
       0.817031         460.516         116.642 
       0.832809         454.324         111.747 
       0.848511         444.922         107.157 
       0.864097         436.379         102.856 
       0.879701         433.016         98.7884 
       0.895507         416.181         94.8933 
       0.911279         411.092         91.2169 
        0.92691         405.379         87.7666 
       0.942635         401.669         84.4764 
       0.958396         387.932         81.3486 
       0.974128         382.978         78.3856 
       0.989692         370.286         75.6002 
        1.00528         368.716         72.9466 
        1.02113         360.867         70.3795 
        1.03692         355.498          67.946 
        1.05264         348.827         65.6394 
        1.06832         343.083          63.444 
        1.08405         340.223         61.3436 
        1.09979         333.165         59.3375 
        1.11537         323.762         57.4414 
        1.13105         321.016         55.6172 
        1.14679         315.154         53.8656 
        1.16256         311.915         52.1863 
        1.17828         307.165         50.5844 
        1.19395         299.268         49.0554 
         1.2097         297.965         47.5821 
        1.22537         291.176         46.1766 
          1.241         286.896         44.8324 
        1.25666         282.793         43.5385 
        1.27241         278.296         42.2897 
        1.28819         273.014          41.088 
        1.30392         271.523         39.9367 
        1.31957         264.169         38.8348 
        1.33529         261.355         37.7705 
        1.35108         258.394          36.742 
        1.36674         252.554         35.7594 
         1.3824         250.239         34.8136 
        1.39811         246.848          33.899 
        1.41389         240.335         33.0139 
        1.42964         237.635          32.162 
        1.44531         234.043         31.3444 
        1.46101         230.624         30.5536 
        1.47667         227.409         29.7925 
        1.49229         223.936         29.0594 
        1.50793         220.946         28.3503 
        1.52367         217.764         27.6603 
        1.53953         212.536         26.9887 
        1.55526         211.889         26.3448 
        1.57092          209.23         25.7247 
        1.58662         204.534          25.123 
        1.60235         202.375         24.5396 
        1.61809         199.945         23.9744 
        1.63369         196.041         23.4321 
        1.64941         193.454         22.9027 
        1.66519         190.407         22.3878 
        1.68085         187.087         21.8924 
        1.69652         185.561         21.4119 
        1.71228          182.71         20.9432 
        1.72806          179.71         20.4881 
        1.74368          178.24         20.0511 
        1.75933         176.496         19.6261 
        1.77505         173.387         19.2114 
        1.79081         170.296          18.808 
         1.8065         168.389         18.4179 
        1.82218         164.945         18.0392 
        1.83797         163.692         17.6686 
        1.85367         161.505         17.3105 
        1.86928         158.369         16.9645 
        1.88497         157.146         16.6261 
        1.90073         155.188         16.2957 
        1.91647         152.137         15.9746 
        1.93218         150.774         15.6628 
        1.94787          147.87         15.3598 
        1.96363         147.598         15.0636 
        1.97935         145.277         14.7759 
        1.99499         143.452         14.4973 
        2.01064         140.117         14.2255 
         2.0264         139.228          13.959 
        2.04216         137.455         13.6995 
        2.05781         134.554         13.4482 
        2.07353         133.882         13.2023 
        2.08928         132.077          12.962 
        2.10499         130.467         12.7284 
        2.12065          128.84         12.5013 
        2.13633         126.853         12.2794 
        2.15211         125.037         12.0616 
        2.16785         123.521         11.8497 
        2.18349          121.91         11.6441 
        2.19916         120.415         11.4431 
        2.21489         119.121         11.2461 
        2.23063         117.274         11.0536 
         2.2463         115.757         10.8665 
        2.26194         114.522         10.6842 
        2.27765         112.605         10.5052 
        2.29341         111.835         10.3298 
        2.30914         110.691         10.1588 
        2.32486         108.181         9.99169 
        2.34061         107.322         9.82812 
        2.35635         106.487         9.66836 
        2.37203         104.543         9.51271 
        2.38768         103.638         9.36081 
        2.40339         101.887         9.21168 
        2.41914         100.937         9.06545 
        2.43483         99.8332         8.92292 
         2.4505           98.67         8.78369 
        2.46622         97.1242         8.64696 
        2.48195         96.2257         8.51314 
        2.49759          94.664         8.38286 
        2.51328         93.9365         8.25498 
        2.52906         92.6005         8.12895 
        2.54479         91.5056         8.00603 
        2.56049         90.2173         7.88589 
        2.57618         89.0175         7.76832 
        2.59189          88.634         7.65297 
        2.60758         87.1362         7.54015 
        2.62325         86.5149         7.42974 
        2.63898         85.5458         7.32116 
        2.65468         84.1528         7.21498 
        2.67044         83.2245         7.11045 
        2.68618         82.2197         7.00824 
        2.70184         81.2118         6.90844 
        2.71755         80.4626         6.81034 
        2.73329         79.0923           6.714 
        2.74897         78.5303         6.61983 
        2.76462         77.6738         6.52768 
        2.78034         76.5379          6.4369 
        2.79607         75.6723         6.34776 
        2.81179         75.0954         6.26041 
        2.82749         73.9401          6.1748 
        2.84321         73.0979         6.09069 
        2.85893         72.1968         6.00818 
        2.87462         71.4249         5.92734 
        2.89033         70.6131         5.84791 
        2.90605         69.9587         5.76987 
        2.92176         69.0914          5.6933 
        2.93747         68.3602         5.61815 
        2.95318         67.4944         5.54435 
        2.96891         66.8829         5.47183 
        2.98456         66.1889         5.40094 
        3.00023         65.3152          5.3312 
        3.01596         64.8543         5.26247 
        3.03164         63.9922         5.19516 
        3.04738         63.4589         5.12882 
         3.0631         62.5933         5.06366 
        3.07883         62.0206         4.99964 
        3.09456         61.2491         4.93673 
        3.11026         60.5355           4.875 
        3.12596          59.911         4.81433 
        3.14163         59.3094         4.75484 
        3.15734         58.6018         4.69621 
        3.17308         58.0639         4.63843 
        3.18879         57.2516         4.58178 
        3.20447         56.8172         4.52616 
         3.2202         56.0929          4.4713 
         3.2359          55.556         4.41743 
        3.25157         55.0468         4.36459 
        3.26729         54.4421         4.31244 
        3.28304         53.7651         4.26105 
        3.29877         53.1989         4.21057 
        3.31446         52.6923         4.16101 
        3.33014         52.2016         4.11229 
        3.34585         51.7154         4.06428 
        3.36158         51.2379         4.01696 
        3.37727         50.6147         3.97054 
        3.39294         50.2474          3.9249 
        3.40867         49.6849         3.87982 
        3.42439         49.1372         3.83546 
        3.44008         48.5599         3.79189 
        3.45578         48.2234         3.74896 
        3.47153         47.7379          3.7066 
        3.48724         47.2445         3.66497 
        3.50292         46.7194         3.62408 
        3.51859         46.2987         3.58383 
        3.53431         45.6185         3.54406 
        3.55007         45.1925         3.50481 
        3.56577         44.7273          3.4663 
        3.58146         44.2612         3.42838 
        3.59719         43.8155         3.39095 
        3.61292         43.3689         3.35409 
        3.62859         43.0501         3.31791 
        3.64429         42.6968          3.2822 
        3.66003         42.2638         3.24691 
        3.67578         41.7942         3.21214 
        3.69146          41.409         3.17802 
        3.70712         41.1268         3.14446 
        3.72284         40.7546         3.11125 
        3.73853         40.2757         3.07858 
        3.75422           39.85         3.04637 
        3.76993         39.4955         3.01459 
        3.78564         39.2212         2.98328 
        3.80137         38.7593         2.95237 
        3.81707         38.3406         2.92195 
        3.83279         37.9837         2.89194 
        3.84853         37.4978          2.8623 
        3.86424          37.246         2.83314 
        3.87992          36.964         2.80442 
        3.89561         36.6492          2.7761 
        3.91134         36.2541         2.74812 
        3.92704         35.8708         2.72055 
        3.94273         35.5494         2.69338 
        3.95845          35.234         2.66654 
        3.97418         34.8557         2.64006 
        3.98988         34.6516         2.61398 
        4.00554         34.2102         2.58831 
        4.02125         33.9744         2.56292 
        4.03698         33.6531         2.53783 
        4.05268         33.4266         2.51314 
        4.06839         33.0214         2.48875 
         4.0841         32.7706         2.46469 
        4.09983         32.4409         2.44092 
        4.11555         32.1742         2.41747 
        4.13124         31.8105         2.39439 
        4.14693         31.5452          2.3716 
        4.16266         31.2279         2.34905 
        4.17839          30.944          2.3268 
        4.19408          30.732          2.3049 
        4.20977         30.3827         2.28327 
        4.22551          30.191         2.26186 
        4.24123         29.9176         2.24075 
        4.25691         29.6473         2.21996 
        4.27259          29.391         2.19943 
        4.28831         29.1513         2.17913 
        4.30404         28.9075         2.15905 
        4.31974         28.6492         2.13928 
        4.33543         28.3556         2.11976 
        4.35116         28.0722         2.10044 
        4.36688           27.89         2.08137 
        4.38255         27.7121          2.0626 
        4.39825         27.3569         2.04403 
        4.41398         27.1575         2.02565 
         4.4297         26.9619         2.00751 
        4.44541         26.8028          1.9896 
        4.46111         26.5052         1.97192 
        4.47683         26.2868         1.95444 
        4.49251         26.0603         1.93721 
        4.50819         25.8487         1.92019 
         4.5239         25.5532         1.90336 
        4.53962         25.4102          1.8867 
        4.55535         25.0949         1.87023 
        4.57106         24.9216         1.85399 
        4.58678         24.7934         1.83793 
         4.6025         24.5777         1.82206 
        4.61821         24.3576         1.80638 
        4.63391         24.0861         1.79091 
         4.6496         23.9734         1.77562 
        4.66532          23.778         1.76049 
        4.68103         23.5155         1.74554 
        4.69673         23.3108         1.73077 
        4.71241         23.1538          1.7162 
        4.72811         22.9624         1.70176 
        4.74384         22.8138         1.68748 
        4.75955         22.6184         1.67338 
        4.77525          22.447         1.65945 
        4.79096         22.2306         1.64566 
        4.80669         22.0662         1.63202 
         4.8224           21.89         1.61855 
        4.83809         21.7061         1.60524 
        4.85379         21.5195         1.59208 
         4.8695          21.341         1.57906 
        4.88521         21.1452         1.56618 
        4.90093         21.0477         1.55345 
        4.91663         20.8395         1.54087 
        4.93234         20.6038         1.52842 
        4.94807         20.5007         1.51609 
        4.96377         20.3763         1.50393 
        4.97943         20.1746         1.49192 
        4.99514         20.0299         1.48001 
        5.01086         19.9159         1.46823 
        5.02654         19.7043          1.4566 
        5.04227         19.5581         1.44507 
          5.058          19.384         1.43365 
        5.07371         19.2016         1.42238 
        5.08942         19.1026         1.41123 
        5.10513         18.9628          1.4002 
        5.12084         18.7967         1.38928 
        5.13656         18.6501         1.37847 
        5.15225         18.5044         1.36781 
        5.16796         18.3578         1.35723 
        5.18369          18.179         1.34676 
         5.1994         18.0735         1.33642 
        5.21509         17.9161          1.3262 
        5.23079         17.8085         1.31607 
        5.24649          17.658         1.30605 
        5.26217         17.5452         1.29615 
        5.27788         17.4029         1.28634 
        5.29359         17.2895         1.27662 
        5.30933         17.1145         1.26699 
        5.32504         16.9886         1.25748 
        5.34073         16.8691         1.24807 
        5.35646         16.7506         1.23874 
        5.37218         16.5997         1.22951 
        5.38789         16.4707         1.22038 
        5.40357         16.3954         1.21136 
        5.41929         16.2394         1.20241 
        5.43502         16.1095         1.19355 
         5.4507         15.9739          1.1848 
        5.46639         15.8658         1.17613 
        5.48212         15.7542         1.16753 
        5.49786         15.6349         1.15901 
        5.51353         15.5662         1.15061 
        5.52921         15.3981         1.14229 
        5.54495         15.3166         1.13403 
        5.56066         15.1557         1.12586 
        5.57637         15.0729         1.11776 
        5.59207         14.9666         1.10976 
        5.60778         14.8861         1.10183 
        5.62346         14.7466         1.09399 
        5.63916         14.6242         1.08622 
        5.65487         14.5158         1.07852 
         5.6706         14.4234         1.07088 
        5.68633         14.3494         1.06332 
        5.70203         14.2125         1.05584 
        5.71773         14.1314         1.04844 
        5.73344         14.0326         1.04111 
        5.74916         13.9311         1.03384 
        5.76486         13.8044         1.02664 
        5.78054         13.7278         1.01953 
        5.79626         13.6218         1.01247 
          5.812         13.5264         1.00546 
         5.8277         13.4454        0.998541 
        5.84339         13.3171        0.991688 
        5.85911         13.2403        0.984885 
        5.87484         13.1477        0.978148 
        5.89053         13.0531        0.971486 
        5.90623         12.9571        0.964884 
        5.92195         12.8797        0.958332 
        5.93767         12.7558        0.951844 
        5.95336         12.6849        0.945426 
        5.96905         12.5728        0.939071 
        5.98476         12.5472        0.932764 
        6.00048         12.4298        0.926514 
        6.01617         12.3323        0.920329 
        6.03185          12.246        0.914208 
        6.04756         12.1742        0.908128 
        6.06331         12.0882        0.902091 
        6.07903          11.992        0.896121 
        6.09473         11.9138         0.89021 
        6.11044         11.8049        0.884347 
        6.12616          11.761        0.878539 
        6.14186         11.6583        0.872788 
        6.15755         11.5927        0.867088 
        6.17326         11.5204        0.861436 
        6.18898         11.4009        0.855831 
        6.20467         11.3446        0.850286 
        6.22036         11.2726         0.84479 
         6.2361         11.1641        0.839328 
         6.2518         11.1216        0.833923 
        6.26748         11.0528        0.828578 
        6.28319         10.9693        0.823265 
        6.29893         10.8801        0.817994 
        6.31463         10.8394        0.812777 
        6.33033          10.729        0.807608 
        6.34604         10.6814        0.802481 
        6.36177          10.605        0.797392 
        6.37747         10.5305        0.792358 
