# k  (h/Mpc)    Pcb(k)  (Mpc/h)^3    Pcb_linear(k) (Mpc/h)^3   ShotnoiseSubtracted = true
      0.0200456         25422.1           26075 
      0.0350414         19320.9         20445.5 
      0.0492313         15615.6         16199.1 
      0.0637834         13319.3         13172.5 
      0.0800726         10114.4         9950.52 
       0.096163         7409.36         7826.72 
       0.111083         6234.38          6625.3 
       0.126058         5534.22         5507.52 
       0.142273         4693.93         4481.67 
       0.158546         4349.85         3817.86 
        0.17375         3541.61         3321.67 
       0.188953         3429.02         2855.62 
       0.204907         3211.61         2471.95 
       0.220756         2831.13         2184.81 
        0.23588         2556.49         1940.59 
         0.2514         2245.22         1719.51 
       0.267535          2255.1         1533.51 
       0.283568         2047.03         1377.99 
       0.299022         1952.17         1244.37 
       0.314451         1857.88         1128.22 
       0.330372         1697.27         1025.82 
       0.346141         1678.96         936.458 
       0.361624         1609.19         858.282 
       0.377134         1507.04         789.143 
       0.392932         1445.04         726.841 
       0.408854         1418.39         670.666 
       0.424564         1308.25          620.91 
       0.440253         1280.66         576.374 
       0.455999         1265.87         536.106 
       0.471626         1212.71         499.889 
        0.48727         1170.45         466.975 
       0.502856            1122         437.148 
       0.518488         1127.47         409.851 
       0.534347          1053.9         384.528 
       0.550082         1043.08         361.522 
       0.565732         1025.64         340.512 
       0.581496         979.886          321.04 
       0.597222         954.398         303.132 
       0.612804          941.91         286.741 
       0.628434         917.659         271.523 
       0.644267          893.11         257.236 
       0.660051         874.485         244.021 
       0.675724         866.193          231.82 
       0.691403         840.841         220.451 
       0.707174         812.548         209.788 
       0.722871         792.945         199.878 
        0.73838         780.199         190.718 
       0.754018         768.619         182.065 
       0.769845         754.063         173.856 
        0.78569         743.397         166.147 
       0.801365         722.041         158.982 
       0.817031         710.636         152.246 
       0.832809         699.105         145.858 
       0.848511         683.186         139.866 
       0.864097         662.197         134.253 
       0.879701         651.964         128.943 
       0.895507          650.18         123.859 
       0.911279         638.027         119.061 
        0.92691         625.785         114.557 
       0.942635         607.216         110.263 
       0.958396         596.621          106.18 
       0.974128         590.126         102.313 
       0.989692         581.792         98.6769 
        1.00528         561.525         95.2134 
        1.02113         561.886         91.8626 
        1.03692         548.024         88.6864 
        1.05264         538.892         85.6756 
        1.06832          527.58         82.8101 
        1.08405         520.323         80.0685 
        1.09979         512.545         77.4501 
        1.11537         504.023         74.9752 
        1.13105         497.309         72.5942 
        1.14679         485.122         70.3079 
        1.16256          474.97          68.116 
        1.17828         472.891         66.0251 
        1.19395           463.4         64.0294 
         1.2097         450.373         62.1064 
        1.22537         444.913         60.2719 
          1.241          436.68         58.5173 
        1.25666         432.461         56.8284 
        1.27241          423.66         55.1986 
        1.28819          413.03         53.6301 
        1.30392         409.368         52.1273 
        1.31957         400.861          50.689 
        1.33529         398.012         49.2998 
        1.35108         388.485         47.9574 
        1.36674         382.485         46.6748 
         1.3824         378.011         45.4404 
        1.39811           369.7         44.2466 
        1.41389         365.874         43.0913 
        1.42964          361.87         41.9794 
        1.44531         357.862         40.9122 
        1.46101         348.531           39.88 
        1.47667         342.163         38.8865 
        1.49229          339.85         37.9297 
        1.50793         329.221         37.0041 
        1.52367         329.075         36.1035 
        1.53953         319.835         35.2269 
        1.55526         318.965         34.3865 
        1.57092         315.893          33.577 
        1.58662         309.295         32.7918 
        1.60235          303.77         32.0302 
        1.61809         299.574         31.2925 
        1.63369          294.78         30.5846 
        1.64941         288.293         29.8936 
        1.66519         286.308         29.2216 
        1.68085          283.32          28.575 
        1.69652         279.064         27.9478 
        1.71228         271.563          27.336 
        1.72806         268.337          26.742 
        1.74368         263.656         26.1717 
        1.75933         261.602         25.6169 
        1.77505         257.017         25.0756 
        1.79081         254.335          24.549 
         1.8065         249.053         24.0399 
        1.82218         246.216         23.5457 
        1.83797         244.319         23.0619 
        1.85367         239.835         22.5945 
        1.86928         235.082         22.1429 
        1.88497         233.461         21.7012 
        1.90073         229.024         21.2699 
        1.91647         226.457         20.8507 
        1.93218         222.929         20.4438 
        1.94787         219.851         20.0483 
        1.96363         216.564         19.6617 
        1.97935         213.066         19.2862 
        1.99499         210.616         18.9226 
        2.01064         207.322         18.5678 
         2.0264         205.486           18.22 
        2.04216         203.318         17.8812 
        2.05781         199.979         17.5532 
        2.07353         196.762         17.2323 
        2.08928         192.867         16.9187 
        2.10499          191.14         16.6137 
        2.12065         188.964         16.3172 
        2.13633         186.413         16.0277 
        2.15211         183.622         15.7434 
        2.16785         182.079         15.4667 
        2.18349         179.525         15.1985 
        2.19916         176.441          14.936 
        2.21489         174.736         14.6789 
        2.23063         172.257         14.4277 
         2.2463         169.043         14.1835 
        2.26194         167.581         13.9455 
        2.27765         164.493         13.7119 
        2.29341         162.622         13.4829 
        2.30914         160.347         13.2597 
        2.32486         159.411         13.0416 
        2.34061          155.98         12.8281 
        2.35635         155.186         12.6196 
        2.37203         152.929         12.4164 
        2.38768         150.319         12.2182 
        2.40339         148.711         12.0235 
        2.41914         147.268         11.8327 
        2.43483         145.291         11.6466 
         2.4505         143.728         11.4649 
        2.46622         141.803         11.2864 
        2.48195         139.834         11.1117 
        2.49759         138.867         10.9417 
        2.51328          137.19         10.7748 
        2.52906         135.284         10.6103 
        2.54479         133.603         10.4498 
        2.56049         131.606          10.293 
        2.57618         130.809         10.1396 
        2.59189         128.691         9.98902 
        2.60758           126.8         9.84176 
        2.62325         125.624         9.69765 
        2.63898         124.154         9.55593 
        2.65468         122.849         9.41733 
        2.67044         121.249          9.2809 
        2.68618         120.104         9.14748 
        2.70184         118.362         9.01722 
        2.71755         117.281         8.88918 
        2.73329         115.412         8.76342 
        2.74897         114.484         8.64051 
        2.76462         113.103         8.52023 
        2.78034         112.084         8.40175 
        2.79607         110.357          8.2854 
        2.81179         109.744         8.17138 
        2.82749         108.333         8.05964 
        2.84321         106.307         7.94986 
        2.85893          105.33         7.84216 
        2.87462         104.306         7.73664 
        2.89033         102.994         7.63297 
        2.90605         102.075         7.53111 
        2.92176          100.58         7.43116 
        2.93747         99.5227         7.33308 
        2.95318         98.8792         7.23674 
        2.96891         97.4107          7.1421 
        2.98456         96.4917         7.04956 
        3.00023         95.6573         6.95853 
        3.01596         94.2588         6.86883 
        3.03164         93.3772         6.78096 
        3.04738         92.5804         6.69438 
         3.0631          91.276         6.60933 
        3.07883         90.0831         6.52576 
        3.09456         89.0235         6.44365 
        3.11026         88.8076         6.36308 
        3.12596         87.4906          6.2839 
        3.14163         86.3752         6.20624 
        3.15734         85.5611         6.12972 
        3.17308         84.8391          6.0543 
        3.18879         83.5154         5.98036 
        3.20447         82.8314         5.90776 
         3.2202         81.9708         5.83615 
         3.2359         81.1891         5.76584 
        3.25157         80.3224         5.69686 
        3.26729         79.3545         5.62881 
        3.28304         78.7548         5.56173 
        3.29877         77.9669         5.49583 
        3.31446         77.0722         5.43114 
        3.33014         76.4045         5.36755 
        3.34585         75.6849         5.30489 
        3.36158         74.6897         5.24312 
        3.37727         73.7874         5.18254 
        3.39294         73.1428         5.12297 
        3.40867         72.3632         5.06412 
        3.42439         71.5106         5.00623 
        3.44008          70.732         4.94935 
        3.45578         70.0526         4.89332 
        3.47153         69.6208         4.83803 
        3.48724         68.8698         4.78369 
        3.50292         68.2644         4.73032 
        3.51859         67.6364         4.67778 
        3.53431         67.0561         4.62588 
        3.55007         66.2237         4.57464 
        3.56577         65.3788         4.52438 
        3.58146         64.9628         4.47489 
        3.59719         64.2856         4.42603 
        3.61292         63.7292         4.37791 
        3.62859         62.9903          4.3307 
        3.64429         62.2353         4.28408 
        3.66003         61.8027         4.23802 
        3.67578         61.0638         4.19264 
        3.69146          60.657          4.1481 
        3.70712         59.9835         4.10429 
        3.72284         59.4596         4.06095 
        3.73853         58.8815         4.01831 
        3.75422         58.2066         3.97627 
        3.76993         57.9701         3.93479 
        3.78564         57.0962         3.89392 
        3.80137         56.6763         3.85357 
        3.81707         56.1396         3.81387 
        3.83279         55.4756         3.77469 
        3.84853         55.1085         3.73601 
        3.86424         54.5494         3.69794 
        3.87992         54.0523         3.66046 
        3.89561         53.5377          3.6235 
        3.91134         52.9062         3.58697 
        3.92704         52.7503         3.55099 
        3.94273         52.0752         3.51553 
        3.95845          51.615          3.4805 
        3.97418         51.1062         3.44593 
        3.98988         50.6682         3.41189 
        4.00554         50.2943         3.37839 
        4.02125         49.7522         3.34525 
        4.03698         49.3083          3.3125 
        4.05268         48.7529         3.28026 
        4.06839         48.4062         3.24843 
         4.0841         47.9348         3.21703 
        4.09983         47.5009           3.186 
        4.11555         47.0421          3.1554 
        4.13124         46.6138         3.12528 
        4.14693         46.2649         3.09552 
        4.16266         45.8529         3.06609 
        4.17839         45.5144         3.03706 
        4.19408         45.0525         3.00846 
        4.20977         44.6375         2.98023 
        4.22551         44.2233         2.95228 
        4.24123         43.8377         2.92473 
        4.25691         43.5277          2.8976 
        4.27259         42.9725         2.87081 
        4.28831          42.704          2.8443 
        4.30404         42.2913          2.8181 
        4.31974          41.899         2.79229 
        4.33543         41.6099         2.76681 
        4.35116         41.1633         2.74159 
        4.36688         40.8417          2.7167 
        4.38255          40.513         2.69221 
        4.39825         40.1573         2.66796 
        4.41398          39.854         2.64397 
         4.4297         39.4877          2.6203 
        4.44541         39.1373         2.59692 
        4.46111         38.7918         2.57384 
        4.47683          38.423         2.55103 
        4.49251         38.1603         2.52854 
        4.50819         37.8149         2.50633 
         4.5239         37.5119         2.48435 
        4.53962         37.1062         2.46261 
        4.55535         36.8732         2.44112 
        4.57106          36.649         2.41991 
        4.58678         36.1982         2.39896 
         4.6025         35.9508         2.37824 
        4.61821         35.6695         2.35777 
        4.63391         35.3801         2.33758 
         4.6496         34.9495         2.31762 
        4.66532         34.6898         2.29787 
        4.68103          34.421         2.27836 
        4.69673         34.2127         2.25909 
        4.71241         33.8564         2.24006 
        4.72811         33.6948         2.22122 
        4.74384           33.32         2.20258 
        4.75955         33.0576         2.18417 
        4.77525         32.7526         2.16599 
        4.79096         32.4691         2.14799 
        4.80669         32.2345         2.13019 
         4.8224         32.0337          2.1126 
        4.83809         31.6658         2.09524 
        4.85379         31.4344         2.07806 
         4.8695         31.1851         2.06106 
        4.88521         30.9546         2.04426 
        4.90093         30.6751         2.02764 
        4.91663         30.4465         2.01122 
        4.93234         30.2429         1.99496 
        4.94807         29.9357         1.97888 
        4.96377         29.7452           1.963 
        4.97943         29.4423         1.94733 
        4.99514         29.3159         1.93178 
        5.01086         29.0408          1.9164 
        5.02654         28.8427         1.90123 
        5.04227         28.5624         1.88617 
          5.058         28.3516         1.87127 
        5.07371          28.108         1.85656 
        5.08942         27.9325           1.842 
        5.10513         27.7414          1.8276 
        5.12084         27.4877         1.81335 
        5.13656         27.3015         1.79925 
        5.15225         27.0721         1.78533 
        5.16796         26.8491         1.77153 
        5.18369         26.6596         1.75786 
         5.1994         26.4979         1.74436 
        5.21509         26.2944         1.73102 
        5.23079         26.0542          1.7178 
        5.24649         25.8453         1.70472 
        5.26217         25.6627          1.6918 
        5.27788         25.4565         1.67899 
        5.29359         25.2639         1.66631 
        5.30933         25.0892         1.65374 
        5.32504          24.868         1.64132 
        5.34073         24.6737         1.62904 
        5.35646         24.4804         1.61687 
        5.37218         24.3306         1.60481 
        5.38789         24.1357          1.5929 
        5.40357         23.9045         1.58113 
        5.41929         23.7876         1.56944 
        5.43502         23.6438         1.55787 
         5.4507         23.4504         1.54645 
        5.46639         23.2271         1.53514 
        5.48212         23.1484         1.52392 
        5.49786         22.9159         1.51279 
        5.51353         22.7822         1.50183 
        5.52921         22.5526         1.49097 
        5.54495         22.4606         1.48019 
        5.56066         22.2548         1.46952 
        5.57637         22.0997         1.45896 
        5.59207          21.902         1.44851 
        5.60778         21.7653         1.43816 
        5.62346         21.5876         1.42793 
        5.63916         21.4187         1.41778 
        5.65487         21.3391         1.40773 
         5.6706         21.0963         1.39777 
        5.68633         20.9652          1.3879 
        5.70203         20.8289         1.37814 
        5.71773         20.6481         1.36848 
        5.73344         20.5362          1.3589 
        5.74916         20.3723         1.34941 
        5.76486         20.2527         1.34002 
        5.78054         20.0868         1.33074 
        5.79626         19.9488         1.32152 
          5.812         19.7966         1.31237 
         5.8277         19.6789         1.30334 
        5.84339         19.4911          1.2944 
        5.85911         19.3341         1.28552 
        5.87484         19.2556         1.27672 
        5.89053          19.123         1.26803 
        5.90623         18.9457         1.25941 
        5.92195         18.8452         1.25086 
        5.93767         18.7018         1.24239 
        5.95336         18.5965         1.23402 
        5.96905         18.3939         1.22572 
        5.98476         18.2977         1.21749 
        6.00048         18.2087         1.20933 
        6.01617         18.0553         1.20126 
        6.03185         17.9279         1.19327 
        6.04756         17.7964         1.18533 
        6.06331         17.6944         1.17745 
        6.07903         17.5586         1.16966 
        6.09473         17.4418         1.16194 
        6.11044         17.2886         1.15429 
        6.12616         17.1809         1.14671 
        6.14186         17.0795          1.1392 
        6.15755          16.999         1.13176 
        6.17326         16.8217         1.12439 
        6.18898         16.6965         1.11707 
        6.20467         16.6139         1.10983 
        6.22036         16.4744         1.10266 
         6.2361           16.38         1.09553 
         6.2518          16.258         1.08848 
        6.26748          16.143          1.0815 
        6.28319         16.0435         1.07456 
        6.29893         15.9519         1.06768 
        6.31463         15.8174         1.06088 
        6.33033         15.6918         1.05413 
        6.34604         15.5859         1.04744 
        6.36177         15.4889         1.04079 
        6.37747         15.4183         1.03422 
