# k  (h/Mpc)    Pcb(k)  (Mpc/h)^3    Pcb_linear(k) (Mpc/h)^3   ShotnoiseSubtracted = true
      0.0200456         12672.8         12841.8 
      0.0350414         10306.9         10069.3 
      0.0492313         7835.55         7977.97 
      0.0637834         6208.38         6487.36 
      0.0800726         4696.96         4900.57 
       0.096163         3935.92         3854.62 
       0.111083          3364.2         3262.92 
       0.126058         2677.42         2712.42 
       0.142273         2259.55          2207.2 
       0.158546         1941.64         1880.27 
        0.17375         1738.17          1635.9 
       0.188953         1580.89         1406.38 
       0.204907         1345.54         1217.42 
       0.220756         1223.82         1076.01 
        0.23588         1098.67         955.728 
         0.2514          982.71          846.85 
       0.267535         949.489         755.247 
       0.283568         837.063         678.654 
       0.299022         801.334         612.844 
       0.314451         816.121          555.64 
       0.330372         704.269         505.212 
       0.346141         652.828           461.2 
       0.361624         625.436         422.699 
       0.377134         589.979         388.649 
       0.392932         571.247         357.965 
       0.408854          542.95         330.299 
       0.424564         526.716         305.795 
       0.440253         479.635         283.861 
       0.455999         459.967         264.029 
       0.471626         464.144         246.192 
        0.48727         439.772         229.982 
       0.502856         406.768         215.293 
       0.518488         406.689         201.849 
       0.534347         378.882         189.378 
       0.550082         366.949         178.047 
       0.565732         364.473           167.7 
       0.581496         350.263          158.11 
       0.597222         340.488         149.291 
       0.612804          332.72         141.218 
       0.628434         318.504         133.723 
       0.644267         305.552         126.687 
       0.660051         300.484         120.179 
       0.675724         297.535          114.17 
       0.691403         288.471         108.571 
       0.707174         278.282         103.319 
       0.722871         273.833         98.4387 
        0.73838         271.725         93.9273 
       0.754018         258.718         89.6658 
       0.769845         257.477         85.6231 
        0.78569         251.636         81.8265 
       0.801365         245.805          78.298 
       0.817031         239.594         74.9803 
       0.832809         236.389         71.8342 
       0.848511         229.978         68.8832 
       0.864097         224.533         66.1188 
       0.879701         223.446         63.5038 
       0.895507         217.467         60.9999 
       0.911279         211.131         58.6367 
        0.92691         209.039         56.4187 
       0.942635         207.259         54.3037 
       0.958396         202.179         52.2931 
       0.974128         197.823         50.3884 
       0.989692         191.982         48.5978 
        1.00528         190.852          46.892 
        1.02113         187.315         45.2418 
        1.03692         183.636         43.6775 
        1.05264         181.077         42.1948 
        1.06832         179.388         40.7835 
        1.08405         174.952         39.4333 
        1.09979         174.065         38.1437 
        1.11537         169.856         36.9249 
        1.13105         167.627         35.7523 
        1.14679         165.182         34.6262 
        1.16256         162.916         33.5467 
        1.17828         160.585          32.517 
        1.19395         156.386         31.5341 
         1.2097         155.855          30.587 
        1.22537         153.841         29.6836 
          1.241          151.35         28.8194 
        1.25666         147.803         27.9877 
        1.27241         144.633          27.185 
        1.28819         143.452         26.4125 
        1.30392         140.766         25.6724 
        1.31957         138.302          24.964 
        1.33529         136.982         24.2799 
        1.35108         134.578         23.6188 
        1.36674         132.613         22.9871 
         1.3824         131.976         22.3791 
        1.39811         128.184         21.7912 
        1.41389         127.421         21.2222 
        1.42964         124.882         20.6746 
        1.44531         123.413          20.149 
        1.46101         121.289         19.6407 
        1.47667         120.795         19.1514 
        1.49229         118.989         18.6802 
        1.50793         116.741         18.2243 
        1.52367          115.31         17.7808 
        1.53953         113.272          17.349 
        1.55526         112.527         16.9351 
        1.57092         111.137         16.5365 
        1.58662         109.359         16.1498 
        1.60235         107.361         15.7747 
        1.61809         106.581         15.4114 
        1.63369         104.935         15.0628 
        1.64941         104.502         14.7225 
        1.66519          102.22         14.3915 
        1.68085         101.019          14.073 
        1.69652         99.3845         13.7642 
        1.71228         98.6009         13.4628 
        1.72806         96.9054         13.1703 
        1.74368          95.469         12.8894 
        1.75933         94.5643         12.6162 
        1.77505         93.3795         12.3496 
        1.79081         92.0491         12.0903 
         1.8065         90.9229         11.8395 
        1.82218         89.5219         11.5961 
        1.83797         89.0884         11.3579 
        1.85367         87.2992         11.1277 
        1.86928          86.694         10.9053 
        1.88497          85.748         10.6877 
        1.90073         84.6606         10.4753 
        1.91647         82.9094         10.2689 
        1.93218         82.1042         10.0684 
        1.94787         81.3228         9.87368 
        1.96363         80.1689          9.6833 
        1.97935         79.4558         9.49834 
        1.99499         78.3753         9.31926 
        2.01064         77.2011         9.14455 
         2.0264         75.9584         8.97323 
        2.04216         75.3406         8.80639 
        2.05781         74.4418         8.64485 
        2.07353         73.4652         8.48679 
        2.08928         72.6091         8.33235 
        2.10499         71.5308         8.18216 
        2.12065         71.1844         8.03614 
        2.13633         70.2552         7.89356 
        2.15211         69.1644         7.75352 
        2.16785         68.0162         7.61727 
        2.18349         67.4098         7.48516 
        2.19916         66.6425         7.35591 
        2.21489         65.6394         7.22928 
        2.23063         64.8999         7.10556 
         2.2463         64.2827         6.98529 
        2.26194         63.5494          6.8681 
        2.27765         62.6628         6.75301 
        2.29341         61.9137         6.64026 
        2.30914         61.0528         6.53032 
        2.32486           60.12         6.42293 
        2.34061         59.8472         6.31778 
        2.35635         58.8501         6.21508 
        2.37203         58.3103         6.11502 
        2.38768         57.5252         6.01738 
        2.40339         56.7614         5.92151 
        2.41914         56.2613         5.82751 
        2.43483          55.655         5.73589 
         2.4505         55.0088         5.64639 
        2.46622         54.4425          5.5585 
        2.48195         53.7203         5.47247 
        2.49759         53.1318         5.38873 
        2.51328         52.5878         5.30652 
        2.52906         51.8949         5.22551 
        2.54479         51.2803         5.14649 
        2.56049         50.5851         5.06926 
        2.57618         50.0551         4.99368 
        2.59189          49.722         4.91954 
        2.60758         48.8728         4.84701 
        2.62325         48.4466         4.77604 
        2.63898          47.822         4.70624 
        2.65468         47.5158         4.63798 
        2.67044         46.8073         4.57079 
        2.68618         46.4894         4.50508 
        2.70184         45.7113         4.44093 
        2.71755         45.3581         4.37787 
        2.73329         44.8112         4.31594 
        2.74897         44.4008          4.2554 
        2.76462         43.9284         4.19617 
        2.78034         43.2895         4.13781 
        2.79607         42.7795         4.08051 
        2.81179         42.4444         4.02436 
        2.82749         41.9907         3.96933 
        2.84321         41.5259         3.91526 
        2.85893         41.0202         3.86222 
        2.87462         40.3894         3.81025 
        2.89033         40.1579          3.7592 
        2.90605         39.5751         3.70903 
        2.92176         39.1903          3.6598 
        2.93747         38.8583          3.6115 
        2.95318         38.5597         3.56405 
        2.96891         38.0875         3.51744 
        2.98456         37.7153         3.47187 
        3.00023         37.2901         3.42704 
        3.01596         36.9084         3.38286 
        3.03164         36.4442         3.33959 
        3.04738         36.0741         3.29694 
         3.0631         35.8573         3.25506 
        3.07883         35.3987          3.2139 
        3.09456         34.9165         3.17346 
        3.11026         34.5832         3.13378 
        3.12596         34.1885         3.09478 
        3.14163         33.8601         3.05654 
        3.15734         33.5949         3.01885 
        3.17308         33.2769         2.98171 
        3.18879         32.7835         2.94529 
        3.20447         32.4906         2.90954 
         3.2202         32.2014         2.87427 
         3.2359         31.8027         2.83964 
        3.25157         31.6313         2.80567 
        3.26729         31.2275         2.77215 
        3.28304         30.8831         2.73912 
        3.29877         30.4755         2.70666 
        3.31446          30.298         2.67481 
        3.33014         29.8882         2.64349 
        3.34585         29.6628         2.61263 
        3.36158         29.2943         2.58221 
        3.37727         29.0987         2.55237 
        3.39294         28.8272         2.52303 
        3.40867         28.4909         2.49405 
        3.42439         28.2599         2.46554 
        3.44008         27.9365         2.43753 
        3.45578         27.6938         2.40993 
        3.47153         27.4335          2.3827 
        3.48724         27.1157         2.35594 
        3.50292          26.885         2.32965 
        3.51859         26.5803         2.30378 
        3.53431         26.2351         2.27822 
        3.55007          26.053         2.25298 
        3.56577         25.7998         2.22823 
        3.58146         25.5649         2.20386 
        3.59719         25.3656         2.17979 
        3.61292         25.0585          2.1561 
        3.62859         24.8738         2.13284 
        3.64429         24.5259         2.10989 
        3.66003          24.323          2.0872 
        3.67578         24.1599         2.06485 
        3.69146         24.0136         2.04292 
        3.70712         23.6703         2.02134 
        3.72284         23.4572               2 
        3.73853         23.2881           1.979 
        3.75422         22.9336         1.95829 
        3.76993         22.7597         1.93786 
        3.78564         22.5946         1.91773 
        3.80137         22.3439         1.89786 
        3.81707         22.2177         1.87831 
        3.83279          21.948         1.85902 
        3.84853         21.7691         1.83996 
        3.86424         21.5027         1.82122 
        3.87992         21.2989         1.80276 
        3.89561         21.1768         1.78455 
        3.91134         20.9119         1.76656 
        3.92704         20.7145         1.74884 
        3.94273         20.6203         1.73138 
        3.95845         20.3846         1.71413 
        3.97418         20.1368          1.6971 
        3.98988         20.0035         1.68033 
        4.00554         19.8748         1.66384 
        4.02125         19.6742         1.64752 
        4.03698         19.4476         1.63139 
        4.05268         19.3046         1.61551 
        4.06839         19.1551         1.59983 
         4.0841         18.9799         1.58437 
        4.09983         18.7332         1.56909 
        4.11555         18.5896         1.55402 
        4.13124         18.4708         1.53918 
        4.14693         18.2965         1.52453 
        4.16266         18.1924         1.51003 
        4.17839         17.9949         1.49573 
        4.19408         17.7499         1.48165 
        4.20977         17.6288         1.46774 
        4.22551          17.466         1.45398 
        4.24123         17.3268         1.44041 
        4.25691         17.1794         1.42705 
        4.27259         17.0445         1.41386 
        4.28831          16.891          1.4008 
        4.30404          16.755          1.3879 
        4.31974         16.6184         1.37519 
        4.33543         16.4812         1.36264 
        4.35116         16.3138         1.35022 
        4.36688         16.1821         1.33796 
        4.38255         16.0188          1.3259 
        4.39825         15.8729         1.31396 
        4.41398         15.7601         1.30214 
         4.4297         15.6215         1.29048 
        4.44541         15.4869         1.27897 
        4.46111         15.3836          1.2676 
        4.47683         15.2031         1.25637 
        4.49251         15.1367         1.24529 
        4.50819         14.9705         1.23435 
         4.5239         14.8668         1.22353 
        4.53962         14.7514         1.21282 
        4.55535         14.5915         1.20224 
        4.57106         14.4809         1.19179 
        4.58678         14.3553         1.18147 
         4.6025         14.2066         1.17127 
        4.61821         14.1569         1.16119 
        4.63391         13.9967         1.15124 
         4.6496         13.8524         1.14142 
        4.66532         13.7522         1.13169 
        4.68103         13.6661         1.12208 
        4.69673         13.5674         1.11259 
        4.71241         13.4268         1.10322 
        4.72811         13.3332         1.09394 
        4.74384         13.2178         1.08476 
        4.75955         13.0997         1.07569 
        4.77525         12.9878         1.06674 
        4.79096         12.9078         1.05787 
        4.80669         12.8006          1.0491 
         4.8224         12.6766         1.04045 
        4.83809          12.599         1.03189 
        4.85379         12.4908         1.02343 
         4.8695         12.3736         1.01506 
        4.88521         12.2903         1.00678 
        4.90093         12.1604          0.9986 
        4.91663         12.1077        0.990513 
        4.93234         12.0285        0.982508 
        4.94807         11.9084        0.974585 
        4.96377         11.8259        0.966765 
        4.97943         11.7683        0.959047 
        4.99514         11.6366        0.951393 
        5.01086         11.5201        0.943817 
        5.02654          11.438        0.936343 
        5.04227         11.3452        0.928927 
          5.058         11.2718        0.921589 
        5.07371          11.192        0.914344 
        5.08942         11.0776        0.907176 
        5.10513         11.0157        0.900084 
        5.12084         10.9326        0.893064 
        5.13656         10.8752        0.886121 
        5.15225         10.7458        0.879262 
        5.16796         10.6632        0.872466 
        5.18369         10.5835        0.865735 
         5.1994         10.5137        0.859088 
        5.21509         10.4335        0.852516 
        5.23079         10.3553        0.846005 
        5.24649         10.2623        0.839567 
        5.26217         10.1901        0.833201 
        5.27788         10.1174        0.826891 
        5.29359         10.0406        0.820646 
        5.30933         9.98013        0.814456 
        5.32504         9.90648        0.808341 
        5.34073         9.81268        0.802294 
        5.35646         9.74613        0.796298 
        5.37218         9.66281        0.790362 
        5.38789          9.6154        0.784495 
        5.40357         9.54941        0.778695 
        5.41929         9.46967        0.772941 
        5.43502         9.40922        0.767244 
         5.4507         9.31763        0.761618 
        5.46639         9.24706        0.756048 
        5.48212         9.19175        0.750521 
        5.49786         9.12927        0.745042 
        5.51353         9.06792        0.739645 
        5.52921         8.99574        0.734296 
        5.54495          8.9187        0.728984 
        5.56066          8.8691         0.72373 
        5.57637         8.78573        0.718529 
        5.59207         8.74865        0.713384 
        5.60778         8.67061        0.708287 
        5.62346         8.59389        0.703246 
        5.63916         8.54565         0.69825 
        5.65487         8.48103          0.6933 
         5.6706          8.4199        0.688393 
        5.68633         8.35531        0.683531 
        5.70203         8.29605        0.678725 
        5.71773         8.25108        0.673967 
        5.73344         8.19814        0.669252 
        5.74916          8.1425        0.664578 
        5.76486         8.07803        0.659954 
        5.78054         8.01359        0.655382 
        5.79626         7.94235         0.65084 
          5.812         7.90227        0.646337 
         5.8277         7.83883        0.641889 
        5.84339         7.77874        0.637484 
        5.85911         7.74759        0.633111 
        5.87484         7.69253        0.628779 
        5.89053         7.62347        0.624497 
        5.90623         7.57755        0.620253 
        5.92195         7.52856        0.616041 
        5.93767         7.47314        0.611871 
        5.95336          7.4227        0.607745 
        5.96905         7.37383         0.60366 
        5.98476         7.32456        0.599606 
        6.00048         7.26814        0.595588 
        6.01617         7.22023        0.591612 
        6.03185         7.18317        0.587678 
        6.04756         7.13032        0.583769 
        6.06331         7.09044        0.579888 
        6.07903         7.03636         0.57605 
        6.09473         6.98907        0.572251 
        6.11044         6.93529        0.568482 
        6.12616         6.89657        0.564748 
        6.14186         6.85469        0.561051 
        6.15755          6.7861        0.557388 
        6.17326         6.76544        0.553754 
        6.18898         6.70776        0.550151 
        6.20467         6.66031        0.546586 
        6.22036         6.62447        0.543054 
         6.2361         6.57412        0.539543 
         6.2518         6.53059        0.536068 
        6.26748         6.48713        0.532632 
        6.28319         6.45567        0.529217 
        6.29893          6.4064        0.525828 
        6.31463         6.36621        0.522475 
        6.33033          6.3206        0.519152 
        6.34604         6.26606        0.515856 
        6.36177         6.24541        0.512585 
        6.37747         6.19362        0.509349 
