# k  (h/Mpc)    Pcb(k)  (Mpc/h)^3    Pcb_linear(k) (Mpc/h)^3   ShotnoiseSubtracted = true
      0.0200456         15776.4         16000.4 
      0.0350414         12858.6         12545.9 
      0.0492313         9716.65         9940.25 
      0.0637834         7687.23            8083 
      0.0800726         5812.24         6105.93 
       0.096163         4901.39         4802.71 
       0.111083         4186.91         4065.48 
       0.126058         3329.17         3379.57 
       0.142273         2831.16         2750.08 
       0.158546         2424.12         2342.75 
        0.17375         2180.35         2038.27 
       0.188953         2005.23         1752.29 
       0.204907         1715.16         1516.86 
       0.220756          1558.7         1340.66 
        0.23588         1400.84          1190.8 
         0.2514          1259.2         1055.14 
       0.267535         1215.95         941.009 
       0.283568         1077.87         845.578 
       0.299022         1032.31          763.58 
       0.314451         1062.96         692.307 
       0.330372         925.879         629.475 
       0.346141         854.774         574.638 
       0.361624         820.359         526.667 
       0.377134         779.969         484.241 
       0.392932         751.958         446.011 
       0.408854         715.533         411.541 
       0.424564         697.888         381.009 
       0.440253         641.235          353.68 
       0.455999         614.106          328.97 
       0.471626         623.261         306.746 
        0.48727         589.406         286.549 
       0.502856         552.635         268.247 
       0.518488         547.097         251.497 
       0.534347         514.613         235.958 
       0.550082         494.646          221.84 
       0.565732             490         208.948 
       0.581496         477.084         196.999 
       0.597222         463.776         186.011 
       0.612804         454.562         175.953 
       0.628434          434.78         166.614 
       0.644267         419.253         157.848 
       0.660051         413.057         149.738 
       0.675724         406.387         142.251 
       0.691403         395.659         135.275 
       0.707174         381.078         128.732 
       0.722871         373.824         122.651 
        0.73838         370.496          117.03 
       0.754018         356.421          111.72 
       0.769845         353.285         106.683 
        0.78569         345.756         101.953 
       0.801365         336.109         97.5563 
       0.817031          330.72         93.4226 
       0.832809         326.415         89.5027 
       0.848511         317.769         85.8259 
       0.864097         310.393         82.3815 
       0.879701         307.591         79.1234 
       0.895507         298.073         76.0036 
       0.911279         291.352         73.0591 
        0.92691         288.701         70.2956 
       0.942635         286.795         67.6604 
       0.958396         277.754         65.1552 
       0.974128         273.647          62.782 
       0.989692         263.565          60.551 
        1.00528         263.233         58.4257 
        1.02113          258.77         56.3696 
        1.03692          252.79         54.4206 
        1.05264         248.582         52.5731 
        1.06832         247.631         50.8147 
        1.08405         241.147         49.1324 
        1.09979         239.056         47.5257 
        1.11537         232.841          46.007 
        1.13105         229.533          44.546 
        1.14679         226.741          43.143 
        1.16256          224.17          41.798 
        1.17828         220.718          40.515 
        1.19395         214.777         39.2903 
         1.2097         214.432         38.1103 
        1.22537         211.792         36.9846 
          1.241         207.103         35.9079 
        1.25666         204.271         34.8716 
        1.27241         200.322         33.8715 
        1.28819         198.024          32.909 
        1.30392         194.751         31.9868 
        1.31957         190.245         31.1042 
        1.33529         188.062         30.2518 
        1.35108         185.694         29.4281 
        1.36674         182.704          28.641 
         1.3824         180.602         27.8835 
        1.39811         177.603          27.151 
        1.41389         174.323         26.4421 
        1.42964         172.022         25.7598 
        1.44531         169.802         25.1049 
        1.46101         166.682         24.4715 
        1.47667         164.963         23.8619 
        1.49229         162.538         23.2748 
        1.50793         159.976         22.7068 
        1.52367         158.234         22.1541 
        1.53953          154.56         21.6162 
        1.55526         154.312         21.1005 
        1.57092          152.13         20.6038 
        1.58662          148.26          20.122 
        1.60235         146.914         19.6547 
        1.61809         144.235          19.202 
        1.63369         142.609         18.7676 
        1.64941         141.416         18.3436 
        1.66519         138.906         17.9312 
        1.68085          136.62         17.5345 
        1.69652         135.119         17.1496 
        1.71228         133.686         16.7742 
        1.72806         131.596         16.4097 
        1.74368         129.987         16.0597 
        1.75933         128.684         15.7193 
        1.77505         126.171         15.3871 
        1.79081          124.45          15.064 
         1.8065         122.465         14.7516 
        1.82218          120.65         14.4483 
        1.83797         120.314         14.1515 
        1.85367         118.173         13.8647 
        1.86928         116.925         13.5875 
        1.88497         115.267         13.3165 
        1.90073         114.243         13.0518 
        1.91647          112.14         12.7946 
        1.93218         110.906         12.5449 
        1.94787         109.204         12.3022 
        1.96363         108.408          12.065 
        1.97935         106.847         11.8346 
        1.99499         105.961         11.6115 
        2.01064         103.636         11.3938 
         2.0264         102.693         11.1803 
        2.04216         100.941         10.9724 
        2.05781         100.085         10.7712 
        2.07353         98.5703         10.5742 
        2.08928         97.2648         10.3818 
        2.10499         96.0661         10.1947 
        2.12065         95.4296         10.0127 
        2.13633         94.2933         9.83507 
        2.15211         92.7989         9.66059 
        2.16785         91.4155         9.49084 
        2.18349         90.1461         9.32623 
        2.19916         89.3353         9.16518 
        2.21489         88.0869         9.00741 
        2.23063         86.8807         8.85326 
         2.2463         86.3219          8.7034 
        2.26194          84.927          8.5574 
        2.27765         83.9818           8.414 
        2.29341         83.1456         8.27351 
        2.30914         82.0353         8.13653 
        2.32486         80.6657         8.00273 
        2.34061         79.9928         7.87171 
        2.35635         78.8415         7.74376 
        2.37203          77.749         7.61909 
        2.38768         76.8905         7.49742 
        2.40339           76.25         7.37798 
        2.41914           75.02         7.26086 
        2.43483         74.1752          7.1467 
         2.4505         73.2237         7.03519 
        2.46622          72.526         6.92568 
        2.48195         71.6677          6.8185 
        2.49759         70.6601         6.71415 
        2.51328         69.9145         6.61172 
        2.52906         68.6576         6.51078 
        2.54479          67.999         6.41233 
        2.56049         67.2598         6.31611 
        2.57618         66.2788         6.22194 
        2.59189         65.7843         6.12956 
        2.60758         64.9051         6.03919 
        2.62325         64.0639         5.95076 
        2.63898         63.3564          5.8638 
        2.65468         62.7436         5.77875 
        2.67044         62.0583         5.69503 
        2.68618         61.3124         5.61316 
        2.70184         60.4119         5.53323 
        2.71755         59.7275         5.45466 
        2.73329         59.1953         5.37749 
        2.74897         58.6316         5.30207 
        2.76462         58.1263         5.22827 
        2.78034         57.4062         5.15556 
        2.79607         56.5397         5.08416 
        2.81179         55.8216          5.0142 
        2.82749         55.5259         4.94563 
        2.84321         54.9594         4.87827 
        2.85893         54.2762         4.81218 
        2.87462         53.5688         4.74743 
        2.89033         52.8981         4.68381 
        2.90605         52.4514         4.62131 
        2.92176         51.7985         4.55998 
        2.93747         51.0244         4.49979 
        2.95318         50.7499         4.44068 
        2.96891         50.0618          4.3826 
        2.98456         49.5197         4.32582 
        3.00023         48.8983         4.26996 
        3.01596         48.4951         4.21492 
        3.03164         48.0462           4.161 
        3.04738         47.4778         4.10787 
         3.0631         46.6932         4.05568 
        3.07883           46.38          4.0044 
        3.09456          45.751         3.95401 
        3.11026         45.3214         3.90457 
        3.12596         44.9587         3.85598 
        3.14163         44.3014         3.80833 
        3.15734         43.8308         3.76138 
        3.17308         43.4627          3.7151 
        3.18879         43.0172         3.66973 
        3.20447         42.5481         3.62518 
         3.2202         42.0262         3.58123 
         3.2359         41.7486         3.53809 
        3.25157         41.1886         3.49576 
        3.26729         40.7684           3.454 
        3.28304         40.4472         3.41284 
        3.29877         39.8598          3.3724 
        3.31446         39.5912         3.33271 
        3.33014         39.2452         3.29369 
        3.34585         38.7147         3.25523 
        3.36158         38.3617         3.21734 
        3.37727         37.9403         3.18016 
        3.39294         37.5324          3.1436 
        3.40867          37.169         3.10749 
        3.42439          36.749         3.07197 
        3.44008         36.4662         3.03707 
        3.45578         35.9865         3.00269 
        3.47153         35.7241         2.96876 
        3.48724         35.1788         2.93541 
        3.50292          34.899         2.90266 
        3.51859         34.6925         2.87042 
        3.53431         34.2555         2.83857 
        3.55007          33.858         2.80713 
        3.56577         33.6257         2.77629 
        3.58146         33.3465         2.74592 
        3.59719         32.9305         2.71594 
        3.61292         32.6156         2.68642 
        3.62859         32.2827         2.65744 
        3.64429         32.0765         2.62884 
        3.66003         31.6878         2.60057 
        3.67578          31.407         2.57273 
        3.69146         31.1645          2.5454 
        3.70712         30.7561         2.51851 
        3.72284         30.5416         2.49192 
        3.73853         30.2163         2.46575 
        3.75422         29.9364         2.43995 
        3.76993         29.6608          2.4145 
        3.78564         29.3914         2.38942 
        3.80137         29.1167         2.36466 
        3.81707         28.8158          2.3403 
        3.83279         28.5566         2.31626 
        3.84853         28.2587         2.29252 
        3.86424         27.9947         2.26917 
        3.87992         27.6739         2.24617 
        3.89561          27.515         2.22348 
        3.91134         27.2644         2.20107 
        3.92704         26.9294         2.17899 
        3.94273         26.7605         2.15723 
        3.95845         26.5342         2.13574 
        3.97418         26.1933         2.11453 
        3.98988         25.9162         2.09363 
        4.00554          25.679         2.07308 
        4.02125         25.5086         2.05274 
        4.03698          25.324         2.03265 
        4.05268         25.0612         2.01287 
        4.06839         24.8154         1.99333 
         4.0841         24.6237         1.97407 
        4.09983         24.3171         1.95503 
        4.11555         24.1396         1.93624 
        4.13124         23.9755         1.91776 
        4.14693         23.6972          1.8995 
        4.16266         23.4666         1.88144 
        4.17839         23.3712         1.86363 
        4.19408         23.0434         1.84608 
        4.20977         22.8966         1.82875 
        4.22551         22.7434         1.81161 
        4.24123         22.4907          1.7947 
        4.25691         22.2633         1.77805 
        4.27259         22.1143         1.76161 
        4.28831         21.9087         1.74534 
        4.30404         21.7198         1.72927 
        4.31974         21.4918         1.71343 
        4.33543         21.3241          1.6978 
        4.35116         21.1489         1.68232 
        4.36688         20.9568         1.66705 
        4.38255         20.8017         1.65202 
        4.39825         20.6305         1.63714 
        4.41398         20.4232         1.62242 
         4.4297         20.2479         1.60789 
        4.44541         20.0012         1.59355 
        4.46111         19.9203         1.57939 
        4.47683         19.6773         1.56539 
        4.49251         19.5577         1.55159 
        4.50819         19.4157         1.53796 
         4.5239         19.1787         1.52447 
        4.53962         19.0686         1.51113 
        4.55535         18.8859         1.49794 
        4.57106         18.7607         1.48493 
        4.58678         18.5842         1.47207 
         4.6025         18.4457         1.45936 
        4.61821         18.2365          1.4468 
        4.63391         18.1255         1.43441 
         4.6496          17.975         1.42216 
        4.66532         17.8325         1.41004 
        4.68103         17.7046         1.39807 
        4.69673         17.5677         1.38624 
        4.71241         17.4352         1.37457 
        4.72811          17.268         1.36301 
        4.74384         17.1318         1.35156 
        4.75955         17.0079         1.34027 
        4.77525          16.856         1.32911 
        4.79096         16.6734         1.31807 
        4.80669         16.5798         1.30714 
         4.8224         16.4042         1.29636 
        4.83809         16.3263          1.2857 
        4.85379         16.1872         1.27516 
         4.8695         16.0341         1.26473 
        4.88521         15.9233         1.25442 
        4.90093         15.8048         1.24422 
        4.91663         15.6536         1.23414 
        4.93234         15.5165         1.22417 
        4.94807         15.4178          1.2143 
        4.96377         15.2965         1.20455 
        4.97943          15.143         1.19494 
        4.99514          15.042          1.1854 
        5.01086         14.9559         1.17596 
        5.02654         14.8578         1.16665 
        5.04227         14.6613         1.15741 
          5.058         14.6082         1.14826 
        5.07371          14.436         1.13924 
        5.08942         14.3525         1.13031 
        5.10513         14.2562         1.12147 
        5.12084         14.1561         1.11272 
        5.13656         14.0371         1.10407 
        5.15225         13.9238         1.09553 
        5.16796         13.7894         1.08706 
        5.18369         13.7138         1.07867 
         5.1994          13.618         1.07039 
        5.21509         13.5121          1.0622 
        5.23079         13.4073         1.05409 
        5.24649         13.2977         1.04607 
        5.26217         13.1938         1.03814 
        5.27788         13.0973         1.03028 
        5.29359         13.0082         1.02249 
        5.30933         12.9045         1.01478 
        5.32504         12.8085         1.00716 
        5.34073         12.7036        0.999629 
        5.35646         12.6392        0.992157 
        5.37218         12.4986        0.984761 
        5.38789         12.3978        0.977452 
        5.40357          12.352        0.970225 
        5.41929         12.2654        0.963055 
        5.43502         12.1472        0.955957 
         5.4507         12.0597        0.948948 
        5.46639         11.9434        0.942008 
        5.48212         11.8671         0.93512 
        5.49786         11.8076        0.928294 
        5.51353         11.7006        0.921569 
        5.52921         11.6455        0.914905 
        5.54495           11.55        0.908286 
        5.56066         11.4653         0.90174 
        5.57637         11.3755         0.89526 
        5.59207         11.2887        0.888849 
        5.60778         11.1991        0.882498 
        5.62346         11.1046        0.876218 
        5.63916         11.0566        0.869994 
        5.65487         10.9755        0.863826 
         5.6706         10.8819        0.857711 
        5.68633         10.7901        0.851653 
        5.70203         10.7273        0.845666 
        5.71773         10.6515        0.839738 
        5.73344          10.574        0.833863 
        5.74916         10.5157        0.828039 
        5.76486         10.4257        0.822278 
        5.78054         10.3552        0.816581 
        5.79626           10.28        0.810922 
          5.812         10.1829        0.805311 
         5.8277         10.1329         0.79977 
        5.84339         10.0617         0.79428 
        5.85911         9.98736        0.788832 
        5.87484         9.93413        0.783435 
        5.89053         9.83275          0.7781 
        5.90623         9.76668        0.772812 
        5.92195         9.69892        0.767564 
        5.93767         9.65754        0.762368 
        5.95336         9.54868        0.757228 
        5.96905         9.50125        0.752137 
        5.98476         9.44879        0.747086 
        6.00048         9.38725         0.74208 
        6.01617         9.29906        0.737126 
        6.03185         9.23634        0.732224 
        6.04756         9.17515        0.727354 
        6.06331         9.12881        0.722519 
        6.07903         9.05854        0.717737 
        6.09473         9.00487        0.713003 
        6.11044         8.94191        0.708307 
        6.12616         8.88755        0.703655 
        6.14186          8.8089        0.699049 
        6.15755         8.77066        0.694484 
        6.17326         8.70056        0.689957 
        6.18898         8.63516        0.685467 
        6.20467         8.56622        0.681026 
        6.22036         8.53554        0.676624 
         6.2361         8.46624         0.67225 
         6.2518         8.41766        0.667921 
        6.26748         8.35894         0.66364 
        6.28319         8.29882        0.659384 
        6.29893          8.2415        0.655162 
        6.31463         8.19618        0.650984 
        6.33033         8.13151        0.646844 
        6.34604         8.07683        0.642737 
        6.36177         8.01888        0.638662 
        6.37747         7.97501        0.634629 
