# k  (h/Mpc)    Pcb(k)  (Mpc/h)^3    Pcb_linear(k) (Mpc/h)^3   ShotnoiseSubtracted = true
      0.0200456         14994.9         15204.5 
      0.0350414         12215.4         11921.9 
      0.0492313         9244.27         9445.81 
      0.0637834         7315.95         7680.95 
      0.0800726         5532.33         5802.22 
       0.096163         4658.28         4563.82 
       0.111083            3980         3863.26 
       0.126058         3165.03         3211.47 
       0.142273          2686.6         2613.29 
       0.158546         2302.47         2226.22 
        0.17375         2068.38         1936.89 
       0.188953         1897.16         1665.13 
       0.204907         1620.86         1441.41 
       0.220756         1473.16         1273.98 
        0.23588         1323.69         1131.57 
         0.2514         1188.25         1002.66 
       0.267535         1147.89         894.202 
       0.283568         1016.01         803.518 
       0.299022         973.115           725.6 
       0.314451          999.68         657.871 
       0.330372         868.322         598.165 
       0.346141         802.465         546.055 
       0.361624         769.899          500.47 
       0.377134         730.745         460.155 
       0.392932         705.289         423.826 
       0.408854         670.881          391.07 
       0.424564         653.483         362.057 
       0.440253         599.088         336.088 
       0.455999         573.908         312.607 
       0.471626         581.991         291.489 
        0.48727         550.544         272.296 
       0.502856          514.32         254.904 
       0.518488         510.607         238.987 
       0.534347          478.94         224.221 
       0.550082         461.145         210.806 
       0.565732          457.18         198.555 
       0.581496         444.114         187.201 
       0.597222         431.571         176.758 
       0.612804         422.771         167.201 
       0.628434         404.444         158.327 
       0.644267         389.408         149.996 
       0.660051         383.509          142.29 
       0.675724          377.89         135.176 
       0.691403          367.65         128.547 
       0.707174         354.058         122.329 
       0.722871          347.57          116.55 
        0.73838          344.58         111.209 
       0.754018         330.778         106.163 
       0.769845          328.18         101.377 
        0.78569         321.154         96.8816 
       0.801365         312.735         92.7038 
       0.817031         306.913         88.7757 
       0.832809         302.888         85.0508 
       0.848511         294.651         81.5569 
       0.864097          287.78         78.2838 
       0.879701         285.542         75.1878 
       0.895507         277.112         72.2231 
       0.911279         270.156         69.4251 
        0.92691         267.826         66.7991 
       0.942635         266.087         64.2949 
       0.958396         258.235         61.9143 
       0.974128         253.904         59.6592 
       0.989692          244.93         57.5392 
        1.00528         244.385         55.5196 
        1.02113         240.397         53.5657 
        1.03692         234.675         51.7136 
        1.05264         230.959         49.9581 
        1.06832         230.197         48.2871 
        1.08405         223.853         46.6885 
        1.09979         222.365         45.1617 
        1.11537          216.71         43.7186 
        1.13105         213.487         42.3302 
        1.14679          210.98          40.997 
        1.16256         208.453         39.7189 
        1.17828          205.39         38.4997 
        1.19395         199.838          37.336 
         1.2097         199.353         36.2147 
        1.22537         197.383          35.145 
          1.241          192.98         34.1219 
        1.25666          189.96         33.1371 
        1.27241         186.132         32.1867 
        1.28819         184.217         31.2721 
        1.30392         181.031         30.3958 
        1.31957         176.958         29.5571 
        1.33529         175.124         28.7471 
        1.35108         172.543         27.9643 
        1.36674         170.123         27.2164 
         1.3824         168.252         26.4966 
        1.39811         164.868         25.8005 
        1.41389         162.553         25.1269 
        1.42964         160.084         24.4785 
        1.44531          158.06         23.8562 
        1.46101          155.02         23.2543 
        1.47667         153.902          22.675 
        1.49229         151.461         22.1171 
        1.50793         149.012         21.5773 
        1.52367         147.359         21.0522 
        1.53953         144.116          20.541 
        1.55526         143.862          20.051 
        1.57092         141.596          19.579 
        1.58662         138.324         19.1211 
        1.60235          136.83          18.677 
        1.61809         134.615         18.2469 
        1.63369          133.18         17.8341 
        1.64941         132.111         17.4312 
        1.66519         129.596         17.0393 
        1.68085         127.551         16.6623 
        1.69652         126.333         16.2966 
        1.71228         125.065         15.9398 
        1.72806         123.005         15.5935 
        1.74368          121.34         15.2609 
        1.75933         120.158         14.9374 
        1.77505         117.788         14.6218 
        1.79081         116.538         14.3147 
         1.8065         114.382         14.0178 
        1.82218         112.934         13.7296 
        1.83797         112.581         13.4476 
        1.85367         110.405          13.175 
        1.86928         109.629         12.9117 
        1.88497         107.907         12.6541 
        1.90073         106.921         12.4026 
        1.91647         104.927         12.1582 
        1.93218         103.744         11.9209 
        1.94787         102.335         11.6903 
        1.96363         101.438         11.4649 
        1.97935         100.058         11.2459 
        1.99499         99.0989         11.0339 
        2.01064         97.0594          10.827 
         2.0264         96.1294         10.6242 
        2.04216          94.427         10.4267 
        2.05781         93.7067         10.2354 
        2.07353         92.3282         10.0483 
        2.08928         91.0517         9.86539 
        2.10499         89.8759         9.68758 
        2.12065         89.4514         9.51469 
        2.13633          88.243         9.34587 
        2.15211         86.9247         9.18007 
        2.16785         85.5936         9.01876 
        2.18349         84.3839         8.86234 
        2.19916         83.7069          8.7093 
        2.21489         82.3628         8.55938 
        2.23063         81.4092         8.41289 
         2.2463          80.885         8.27049 
        2.26194         79.6064         8.13175 
        2.27765         78.7538         7.99548 
        2.29341         77.9429         7.86198 
        2.30914         76.8944         7.73181 
        2.32486         75.4377         7.60467 
        2.34061         74.8663         7.48017 
        2.35635         73.8773         7.35858 
        2.37203         72.8827         7.24011 
        2.38768         72.0249          7.1245 
        2.40339         71.2184           7.011 
        2.41914         70.2903          6.8997 
        2.43483         69.5065         6.79122 
         2.4505         68.4793         6.68526 
        2.46622         67.9654         6.58119 
        2.48195          67.132         6.47934 
        2.49759         66.1893         6.38019 
        2.51328         65.4366         6.28285 
        2.52906          64.449         6.18693 
        2.54479         63.7483         6.09338 
        2.56049         63.0516         6.00194 
        2.57618         62.1367         5.91246 
        2.59189         61.7489         5.82467 
        2.60758         60.8667          5.7388 
        2.62325         60.1394         5.65477 
        2.63898         59.4597         5.57213 
        2.65468         58.8787         5.49131 
        2.67044          58.316         5.41176 
        2.68618         57.5764         5.33396 
        2.70184         56.7603         5.25801 
        2.71755         56.1142         5.18334 
        2.73329         55.6487         5.11001 
        2.74897         55.2063         5.03834 
        2.76462          54.637         4.96821 
        2.78034         53.9265         4.89912 
        2.79607         53.0541         4.83127 
        2.81179          52.467         4.76479 
        2.82749         52.1135         4.69963 
        2.84321         51.6104         4.63562 
        2.85893         50.9832         4.57282 
        2.87462         50.2995         4.51129 
        2.89033         49.6967         4.45084 
        2.90605         49.1558         4.39144 
        2.92176         48.6126         4.33316 
        2.93747         47.9071         4.27597 
        2.95318         47.6716          4.2198 
        2.96891         47.0388         4.16461 
        2.98456         46.5411         4.11065 
        3.00023         45.9226         4.05757 
        3.01596         45.5485         4.00526 
        3.03164         45.1013         3.95403 
        3.04738         44.5757         3.90354 
         3.0631         43.9899         3.85395 
        3.07883         43.5727         3.80522 
        3.09456         43.0372         3.75734 
        3.11026         42.5939         3.71036 
        3.12596         42.2009         3.66418 
        3.14163          41.735          3.6189 
        3.15734         41.2657         3.57428 
        3.17308         40.9429         3.53031 
        3.18879         40.4845         3.48719 
        3.20447         40.0184         3.44486 
         3.2202         39.5866          3.4031 
         3.2359         39.2684          3.3621 
        3.25157         38.7323         3.32188 
        3.26729         38.3811          3.2822 
        3.28304         38.0574         3.24308 
        3.29877         37.4978         3.20466 
        3.31446           37.23         3.16694 
        3.33014         36.9183         3.12986 
        3.34585         36.3896         3.09332 
        3.36158         36.0989          3.0573 
        3.37727         35.6567         3.02198 
        3.39294         35.2683         2.98724 
        3.40867         35.0056         2.95292 
        3.42439         34.5942         2.91917 
        3.44008         34.3235           2.886 
        3.45578         33.8802         2.85333 
        3.47153         33.6438         2.82109 
        3.48724          33.148         2.78941 
        3.50292         32.9247         2.75828 
        3.51859         32.6902         2.72765 
        3.53431         32.3055         2.69738 
        3.55007         31.8742          2.6675 
        3.56577          31.651          2.6382 
        3.58146         31.4425         2.60934 
        3.59719         30.9618         2.58085 
        3.61292         30.7518         2.55279 
        3.62859         30.3682         2.52526 
        3.64429         30.1814         2.49808 
        3.66003         29.8431         2.47122 
        3.67578         29.5631         2.44476 
        3.69146         29.3688         2.41879 
        3.70712         28.9433         2.39324 
        3.72284         28.7697         2.36797 
        3.73853         28.5296         2.34311 
        3.75422         28.2151         2.31859 
        3.76993         27.9143          2.2944 
        3.78564         27.7032         2.27057 
        3.80137         27.4571         2.24704 
        3.81707         27.1439         2.22389 
        3.83279         26.9132         2.20105 
        3.84853         26.7028         2.17849 
        3.86424         26.3049          2.1563 
        3.87992          26.081         2.13444 
        3.89561         25.9069         2.11289 
        3.91134         25.6995         2.09159 
        3.92704         25.3699         2.07061 
        3.94273         25.1713         2.04993 
        3.95845         25.0001          2.0295 
        3.97418         24.6521         2.00935 
        3.98988         24.4461         1.98949 
        4.00554         24.2045         1.96996 
        4.02125         24.0337         1.95064 
        4.03698         23.8653         1.93154 
        4.05268         23.5529         1.91274 
        4.06839         23.3718         1.89418 
         4.0841          23.195         1.87587 
        4.09983         22.9011         1.85778 
        4.11555         22.7222         1.83993 
        4.13124         22.5705         1.82237 
        4.14693         22.3102         1.80502 
        4.16266         22.0971         1.78786 
        4.17839         22.0323         1.77093 
        4.19408         21.7064         1.75426 
        4.20977         21.5455         1.73779 
        4.22551         21.3927          1.7215 
        4.24123         21.1694         1.70543 
        4.25691         20.9684         1.68961 
        4.27259         20.8167         1.67399 
        4.28831         20.6146         1.65853 
        4.30404         20.4207         1.64325 
        4.31974         20.2053          1.6282 
        4.33543         20.0898         1.61335 
        4.35116         19.9027         1.59864 
        4.36688          19.732         1.58413 
        4.38255         19.5754         1.56985 
        4.39825         19.4212         1.55571 
        4.41398         19.2274         1.54172 
         4.4297         19.0321         1.52791 
        4.44541         18.8413         1.51428 
        4.46111         18.7346         1.50083 
        4.47683         18.5249         1.48752 
        4.49251         18.4172         1.47441 
        4.50819         18.2813         1.46146 
         4.5239         18.0974         1.44864 
        4.53962         17.9539         1.43597 
        4.55535           17.81         1.42343 
        4.57106         17.6858         1.41107 
        4.58678         17.5075         1.39885 
         4.6025         17.3234         1.38677 
        4.61821         17.2068         1.37484 
        4.63391         17.0641         1.36306 
         4.6496         16.9221         1.35142 
        4.66532         16.8095          1.3399 
        4.68103         16.6643         1.32853 
        4.69673         16.5339         1.31729 
        4.71241         16.4218          1.3062 
        4.72811         16.2767         1.29521 
        4.74384         16.1078         1.28434 
        4.75955         16.0303         1.27361 
        4.77525         15.8784           1.263 
        4.79096         15.7197         1.25251 
        4.80669         15.5976         1.24213 
         4.8224         15.4505         1.23187 
        4.83809         15.3276         1.22175 
        4.85379         15.2403         1.21173 
         4.8695         15.1185         1.20182 
        4.88521         14.9757         1.19202 
        4.90093         14.8702         1.18233 
        4.91663         14.7234         1.17276 
        4.93234         14.5961         1.16328 
        4.94807         14.4978          1.1539 
        4.96377         14.4135         1.14464 
        4.97943         14.2545          1.1355 
        4.99514         14.1568         1.12644 
        5.01086         14.0841         1.11747 
        5.02654         13.9572         1.10862 
        5.04227         13.8101         1.09984 
          5.058         13.7498         1.09115 
        5.07371         13.5872         1.08257 
        5.08942         13.5223         1.07408 
        5.10513         13.4104         1.06569 
        5.12084         13.3268         1.05738 
        5.13656           13.21         1.04916 
        5.15225         13.1047         1.04104 
        5.16796         12.9727         1.03299 
        5.18369         12.9089         1.02502 
         5.1994         12.7987         1.01715 
        5.21509         12.6977         1.00937 
        5.23079         12.6151         1.00166 
        5.24649         12.5338        0.994037 
        5.26217         12.3941        0.986499 
        5.27788         12.3074        0.979029 
        5.29359         12.2237        0.971634 
        5.30933         12.1519        0.964306 
        5.32504         12.0529        0.957065 
        5.34073         11.9603        0.949906 
        5.35646         11.8732        0.942807 
        5.37218         11.7489        0.935778 
        5.38789         11.6687        0.928833 
        5.40357         11.6079        0.921966 
        5.41929         11.5214        0.915153 
        5.43502         11.4326        0.908408 
         5.4507          11.344        0.901747 
        5.46639          11.228        0.895152 
        5.48212         11.1529        0.888607 
        5.49786         11.1039         0.88212 
        5.51353         11.0113         0.87573 
        5.52921         10.9472        0.869397 
        5.54495         10.8501        0.863108 
        5.56066         10.7907        0.856887 
        5.57637         10.7152        0.850729 
        5.59207         10.6098        0.844637 
        5.60778         10.5263        0.838602 
        5.62346         10.4342        0.832635 
        5.63916          10.371         0.82672 
        5.65487         10.3254        0.820859 
         5.6706         10.2383        0.815048 
        5.68633         10.1376        0.809292 
        5.70203         10.0891        0.803602 
        5.71773         10.0079        0.797969 
        5.73344         9.95487        0.792386 
        5.74916         9.88127        0.786852 
        5.76486         9.81917        0.781377 
        5.78054         9.75247        0.775964 
        5.79626         9.67611        0.770586 
          5.812         9.58683        0.765255 
         5.8277         9.53038        0.759989 
        5.84339         9.45742        0.754772 
        5.85911         9.39381        0.749595 
        5.87484         9.33301        0.744467 
        5.89053         9.26328        0.739397 
        5.90623         9.19867        0.734372 
        5.92195         9.13799        0.729385 
        5.93767           9.088        0.724447 
        5.95336         8.99804        0.719563 
        5.96905         8.94223        0.714726 
        5.98476         8.89631        0.709926 
        6.00048         8.83253        0.705169 
        6.01617         8.74831        0.700461 
        6.03185         8.71722        0.695803 
        6.04756         8.64049        0.691175 
        6.06331         8.59602         0.68658 
        6.07903         8.53355        0.682036 
        6.09473         8.47378        0.677538 
        6.11044         8.41637        0.673076 
        6.12616         8.35724        0.668655 
        6.14186         8.29823        0.664278 
        6.15755         8.25382         0.65994 
        6.17326         8.19026        0.655638 
        6.18898         8.12442        0.651372 
        6.20467         8.07533        0.647151 
        6.22036         8.02667        0.642969 
         6.2361         7.97017        0.638812 
         6.2518         7.92299        0.634698 
        6.26748         7.86606         0.63063 
        6.28319         7.81236        0.626586 
        6.29893         7.76389        0.622574 
        6.31463         7.70528        0.618604 
        6.33033         7.65187         0.61467 
        6.34604         7.61102        0.610767 
        6.36177         7.55546        0.606894 
        6.37747         7.51048        0.603063 
