# k  (h/Mpc)    Pcb(k)  (Mpc/h)^3    Pcb_linear(k) (Mpc/h)^3   ShotnoiseSubtracted = true
      0.0200456         28410.7           28911 
      0.0350414         23313.4         22669.2 
      0.0492313         17247.2           17961 
      0.0637834         13610.3         14605.1 
      0.0800726         10278.4         11032.8 
       0.096163         8839.64         8677.98 
       0.111083         7507.29         7345.89 
       0.126058         6006.51         6106.53 
       0.142273         5222.31         4969.11 
       0.158546         4411.67          4233.1 
        0.17375         4055.47         3682.94 
       0.188953         3870.52         3166.21 
       0.204907         3339.53         2740.81 
       0.220756         3054.22         2422.44 
        0.23588         2751.36         2151.65 
         0.2514         2520.24         1906.53 
       0.267535         2408.92          1700.3 
       0.283568         2189.07         1527.87 
       0.299022         2089.19         1379.71 
       0.314451         2166.16         1250.92 
       0.330372          1987.7          1137.4 
       0.346141         1841.85         1038.31 
       0.361624         1755.07         951.631 
       0.377134         1705.47         874.973 
       0.392932         1609.63         805.895 
       0.408854         1558.33          743.61 
       0.424564         1529.27         688.443 
       0.440253          1454.6         639.063 
       0.455999         1388.72         594.414 
       0.471626         1377.76         554.258 
        0.48727          1325.8         517.765 
       0.502856         1303.71         484.694 
       0.518488         1243.25         454.428 
       0.534347         1205.73         426.351 
       0.550082         1171.07         400.842 
       0.565732         1140.05         377.548 
       0.581496         1108.06         355.957 
       0.597222         1103.38         336.102 
       0.612804         1066.77         317.928 
       0.628434         1030.88         301.054 
       0.644267         1011.11         285.214 
       0.660051          989.14         270.561 
       0.675724          978.17         257.033 
       0.691403         934.799         244.428 
       0.707174         917.326         232.605 
       0.722871         911.993         221.617 
        0.73838         877.655         211.461 
       0.754018         875.866         201.867 
       0.769845         849.997         192.765 
        0.78569         828.514         184.218 
       0.801365         811.412         176.274 
       0.817031         796.875         168.805 
       0.832809         780.275         161.722 
       0.848511          754.41         155.078 
       0.864097         747.379         148.855 
       0.879701         746.077         142.968 
       0.895507         727.282          137.33 
       0.911279         718.821          132.01 
        0.92691          702.69         127.017 
       0.942635         685.344         122.255 
       0.958396         682.785         117.729 
       0.974128         663.293          113.44 
       0.989692             653         109.409 
        1.00528         639.889         105.569 
        1.02113         626.972         101.854 
        1.03692         613.755         98.3322 
        1.05264         607.903          94.994 
        1.06832         598.065         91.8167 
        1.08405         586.851         88.7771 
        1.09979         576.435         85.8738 
        1.11537         561.276         83.1298 
        1.13105         555.645         80.4898 
        1.14679         547.197         77.9548 
        1.16256         539.091         75.5245 
        1.17828         532.461         73.2062 
        1.19395         519.678         70.9935 
         1.2097         506.668         68.8613 
        1.22537         502.008         66.8272 
          1.241         490.037         64.8818 
        1.25666         480.911         63.0093 
        1.27241         478.726         61.2021 
        1.28819          469.01          59.463 
        1.30392         462.631         57.7968 
        1.31957         452.589         56.2021 
        1.33529         446.724         54.6619 
        1.35108         445.161         53.1735 
        1.36674         436.875         51.7513 
         1.3824         426.848         50.3826 
        1.39811         422.459          49.059 
        1.41389         417.186         47.7781 
        1.42964         407.841         46.5452 
        1.44531         404.644          45.362 
        1.46101         394.179         44.2175 
        1.47667         390.876          43.116 
        1.49229         387.432         42.0551 
        1.50793         376.749         41.0288 
        1.52367         373.063         40.0302 
        1.53953         366.151         39.0583 
        1.55526         357.516         38.1265 
        1.57092         353.757          37.229 
        1.58662         350.524         36.3583 
        1.60235         344.281         35.5139 
        1.61809         337.751          34.696 
        1.63369         334.262         33.9111 
        1.64941          328.74          33.145 
        1.66519         325.369         32.3998 
        1.68085         316.444         31.6829 
        1.69652         313.887         30.9875 
        1.71228         309.008         30.3091 
        1.72806         304.499         29.6506 
        1.74368         301.167         29.0182 
        1.75933         297.089         28.4031 
        1.77505         292.184         27.8029 
        1.79081         289.121         27.2191 
         1.8065         285.142         26.6545 
        1.82218         278.774         26.1066 
        1.83797         276.654         25.5702 
        1.85367          271.91          25.052 
        1.86928         268.065         24.5512 
        1.88497         264.297         24.0615 
        1.90073         261.245         23.5833 
        1.91647         257.336         23.1185 
        1.93218         253.806         22.6673 
        1.94787         250.474         22.2288 
        1.96363         247.739         21.8002 
        1.97935         241.542         21.3838 
        1.99499         240.849         20.9807 
        2.01064          235.36         20.5873 
         2.0264         232.374         20.2016 
        2.04216         229.819          19.826 
        2.05781          225.21         19.4623 
        2.07353         223.609         19.1065 
        2.08928         219.554         18.7588 
        2.10499         218.724         18.4207 
        2.12065         215.216         18.0919 
        2.13633         211.519         17.7709 
        2.15211         208.387         17.4557 
        2.16785           206.5         17.1489 
        2.18349          202.37         16.8515 
        2.19916         201.393         16.5605 
        2.21489         198.254         16.2754 
        2.23063         196.157         15.9969 
         2.2463         192.606         15.7261 
        2.26194         189.343         15.4623 
        2.27765         188.254         15.2032 
        2.29341         185.798         14.9494 
        2.30914          182.89         14.7018 
        2.32486         182.348         14.4601 
        2.34061         178.517         14.2234 
        2.35635         176.456         13.9921 
        2.37203         174.631         13.7669 
        2.38768           172.6         13.5471 
        2.40339         169.457         13.3312 
        2.41914         168.167         13.1196 
        2.43483         165.843         12.9133 
         2.4505          163.63         12.7118 
        2.46622         161.936          12.514 
        2.48195         159.834         12.3203 
        2.49759          158.53         12.1318 
        2.51328           155.5         11.9467 
        2.52906         153.808         11.7643 
        2.54479         151.815         11.5864 
        2.56049         150.054         11.4125 
        2.57618         148.556         11.2424 
        2.59189         147.099         11.0755 
        2.60758         145.709         10.9122 
        2.62325         142.999         10.7524 
        2.63898          141.51         10.5953 
        2.65468         140.032         10.4416 
        2.67044         138.849         10.2903 
        2.68618         136.579         10.1424 
        2.70184         135.594         9.99796 
        2.71755         133.532         9.85599 
        2.73329         132.101         9.71656 
        2.74897         130.488         9.58028 
        2.76462         128.881         9.44692 
        2.78034         127.698         9.31555 
        2.79607         126.091         9.18654 
        2.81179         124.123         9.06012 
        2.82749         123.343         8.93623 
        2.84321         122.138         8.81451 
        2.85893         120.666          8.6951 
        2.87462         118.944         8.57811 
        2.89033          118.16         8.46316 
        2.90605         116.385         8.35022 
        2.92176         115.284          8.2394 
        2.93747         113.876         8.13065 
        2.95318         112.793         8.02383 
        2.96891         111.622         7.91889 
        2.98456         110.446          7.8163 
        3.00023         109.306         7.71537 
        3.01596         108.158         7.61591 
        3.03164         106.816         7.51848 
        3.04738         105.829         7.42248 
         3.0631         104.748         7.32819 
        3.07883         103.633         7.23553 
        3.09456         102.553         7.14449 
        3.11026         101.239         7.05515 
        3.12596          100.49         6.96735 
        3.14163         98.8019         6.88125 
        3.15734         97.9721         6.79641 
        3.17308          96.998         6.71279 
        3.18879         95.6843          6.6308 
        3.20447         95.0429         6.55031 
         3.2202         93.7874          6.4709 
         3.2359         93.2273         6.39295 
        3.25157         92.3182         6.31647 
        3.26729         91.0023         6.24101 
        3.28304         90.2844         6.16664 
        3.29877         89.1662         6.09357 
        3.31446         88.3815         6.02185 
        3.33014         87.5875         5.95135 
        3.34585         86.7315         5.88186 
        3.36158         85.7041         5.81338 
        3.37727         84.7301         5.74621 
        3.39294         84.1816         5.68016 
        3.40867         83.1247         5.61491 
        3.42439          82.289         5.55072 
        3.44008         81.4896         5.48766 
        3.45578          80.777         5.42553 
        3.47153         79.8702         5.36423 
        3.48724         78.8594         5.30398 
        3.50292         78.3519          5.2448 
        3.51859         77.6882         5.18655 
        3.53431         76.6816           5.129 
        3.55007         75.8374         5.07219 
        3.56577          75.199         5.01646 
        3.58146         74.5258         4.96159 
        3.59719         73.6554         4.90742 
        3.61292         73.1926         4.85407 
        3.62859         72.1776         4.80172 
        3.64429         71.8766         4.75004 
        3.66003         71.0528         4.69896 
        3.67578         70.2555         4.64865 
        3.69146         69.7257         4.59926 
        3.70712          69.045         4.55069 
        3.72284         68.2267         4.50263 
        3.73853         67.7846         4.45536 
        3.75422         67.2194         4.40874 
        3.76993         66.3755         4.36275 
        3.78564         65.5932         4.31744 
        3.80137           65.24         4.27269 
        3.81707         64.5254         4.22868 
        3.83279         63.9779         4.18524 
        3.84853         63.5907         4.14235 
        3.86424         62.9242         4.10014 
        3.87992         62.1707         4.05858 
        3.89561         61.7098          4.0176 
        3.91134         61.1076          3.9771 
        3.92704         60.6543          3.9372 
        3.94273          59.958         3.89789 
        3.95845           59.36         3.85905 
        3.97418         58.9294         3.82072 
        3.98988         58.4885         3.78297 
        4.00554         57.8248         3.74583 
        4.02125         57.1741         3.70909 
        4.03698         56.8248         3.67278 
        4.05268         56.3014         3.63703 
        4.06839         55.6975         3.60174 
         4.0841         55.4301         3.56693 
        4.09983         54.8889         3.53252 
        4.11555         54.3059         3.49859 
        4.13124         53.9243         3.46519 
        4.14693         53.2986          3.4322 
        4.16266         52.9194         3.39957 
        4.17839         52.5053         3.36738 
        4.19408         51.9753         3.33567 
        4.20977         51.4793         3.30436 
        4.22551         51.0707         3.27338 
        4.24123         50.6681         3.24283 
        4.25691          50.187         3.21275 
        4.27259         49.8016         3.18304 
        4.28831         49.3143         3.15365 
        4.30404         48.9279          3.1246 
        4.31974         48.5247         3.09598 
        4.33543         48.0929         3.06774 
        4.35116         47.7175         3.03978 
        4.36688         47.2304         3.01218 
        4.38255         46.9205         2.98502 
        4.39825         46.4633         2.95814 
        4.41398         46.0718         2.93154 
         4.4297         45.7877         2.90529 
        4.44541         45.1864         2.87937 
        4.46111         44.8128         2.85378 
        4.47683         44.5902         2.82849 
        4.49251         44.1729         2.80355 
        4.50819         43.8121         2.77893 
         4.5239         43.4003         2.75456 
        4.53962         43.1217         2.73045 
        4.55535         42.7349         2.70662 
        4.57106         42.4455         2.68311 
        4.58678         42.0316         2.65987 
         4.6025         41.6506         2.63691 
        4.61821         41.3013         2.61421 
        4.63391         41.0075         2.59182 
         4.6496         40.6603         2.56969 
        4.66532         40.3015         2.54779 
        4.68103          40.049         2.52616 
        4.69673         39.7433         2.50479 
        4.71241         39.3202          2.4837 
        4.72811         38.9885         2.46281 
        4.74384         38.7245         2.44213 
        4.75955         38.4286         2.42173 
        4.77525         38.0669         2.40157 
        4.79096         37.7036         2.38161 
        4.80669         37.4811         2.36187 
         4.8224         37.2566         2.34238 
        4.83809         36.8535         2.32313 
        4.85379          36.682         2.30408 
         4.8695         36.3262         2.28523 
        4.88521         36.0129          2.2666 
        4.90093         35.6841         2.24817 
        4.91663         35.5114         2.22996 
        4.93234         35.1676         2.21194 
        4.94807         34.9161          2.1941 
        4.96377         34.5386          2.1765 
        4.97943         34.2996         2.15912 
        4.99514         34.0904         2.14189 
        5.01086          33.826         2.12484 
        5.02654         33.5543         2.10801 
        5.04227         33.2768         2.09131 
          5.058         33.0099         2.07479 
        5.07371         32.7525         2.05848 
        5.08942         32.4811         2.04234 
        5.10513         32.2425         2.02638 
        5.12084         32.0184         2.01057 
        5.13656         31.7791         1.99494 
        5.15225         31.5347          1.9795 
        5.16796         31.2692          1.9642 
        5.18369         31.0156         1.94905 
         5.1994         30.7331         1.93408 
        5.21509         30.5161         1.91929 
        5.23079         30.2786         1.90463 
        5.24649         30.0126         1.89014 
        5.26217         29.8518          1.8758 
        5.27788         29.5913          1.8616 
        5.29359         29.3227         1.84754 
        5.30933         29.1125          1.8336 
        5.32504         28.9303         1.81983 
        5.34073         28.7199         1.80622 
        5.35646         28.4836         1.79272 
        5.37218         28.3024         1.77936 
        5.38789         28.0888         1.76615 
        5.40357         27.8766         1.75309 
        5.41929         27.6812         1.74014 
        5.43502         27.4354         1.72731 
         5.4507         27.2485         1.71465 
        5.46639         27.0302         1.70211 
        5.48212         26.8312         1.68966 
        5.49786         26.6661         1.67733 
        5.51353         26.4348         1.66518 
        5.52921         26.2845         1.65314 
        5.54495         26.0361         1.64118 
        5.56066         25.9162         1.62935 
        5.57637         25.6552         1.61764 
        5.59207         25.4967         1.60606 
        5.60778          25.282         1.59458 
        5.62346         25.1494         1.58323 
        5.63916         24.9719         1.57199 
        5.65487         24.7669         1.56084 
         5.6706         24.6151         1.54979 
        5.68633         24.4465         1.53885 
        5.70203         24.1882         1.52803 
        5.71773         24.0584         1.51732 
        5.73344         23.8959          1.5067 
        5.74916          23.745         1.49618 
        5.76486         23.5703         1.48577 
        5.78054         23.3566         1.47548 
        5.79626         23.2102         1.46525 
          5.812         23.0241         1.45511 
         5.8277         22.8619          1.4451 
        5.84339         22.6664         1.43518 
        5.85911         22.5329         1.42534 
        5.87484         22.4126         1.41559 
        5.89053           22.26         1.40594 
        5.90623         22.0852         1.39639 
        5.92195         21.9749         1.38691 
        5.93767         21.7414         1.37752 
        5.95336         21.6148         1.36823 
        5.96905          21.483         1.35903 
        5.98476         21.3197         1.34991 
        6.00048         21.1769         1.34086 
        6.01617         21.0227         1.33191 
        6.03185         20.9056         1.32305 
        6.04756         20.7377         1.31425 
        6.06331          20.583         1.30551 
        6.07903         20.4281         1.29687 
        6.09473         20.2986         1.28832 
        6.11044         20.1545         1.27984 
        6.12616         20.0403         1.27143 
        6.14186         19.9081         1.26311 
        6.15755         19.7214         1.25486 
        6.17326         19.6325         1.24668 
        6.18898         19.4863         1.23857 
        6.20467         19.3733         1.23054 
        6.22036         19.1739         1.22259 
         6.2361         19.0508         1.21468 
         6.2518         18.9482         1.20686 
        6.26748         18.8094         1.19913 
        6.28319         18.6682         1.19144 
        6.29893         18.5542         1.18381 
        6.31463         18.4496         1.17626 
        6.33033         18.3093         1.16878 
        6.34604         18.1636         1.16136 
        6.36177         18.0809         1.15399 
        6.37747         17.9293         1.14671 
