# k  (h/Mpc)    Pcb(k)  (Mpc/h)^3    Pcb_linear(k) (Mpc/h)^3   ShotnoiseSubtracted = true
      0.0200456         14898.7         15204.5 
      0.0350414         11454.2         11921.9 
      0.0492313         9243.77         9445.81 
      0.0637834         7794.12         7680.95 
      0.0800726          5922.3         5802.22 
       0.096163         4387.99         4563.82 
       0.111083         3662.99         3863.26 
       0.126058         3241.09         3211.47 
       0.142273          2728.5         2613.29 
       0.158546         2445.79         2226.22 
        0.17375         1990.94         1936.89 
       0.188953         1895.51         1665.13 
       0.204907         1772.23         1441.41 
       0.220756         1547.29         1273.98 
        0.23588         1375.92         1131.57 
         0.2514         1195.19         1002.66 
       0.267535         1181.94         894.202 
       0.283568         1075.33         803.518 
       0.299022         1012.37           725.6 
       0.314451         962.275         657.871 
       0.330372           886.8         598.165 
       0.346141         829.322         546.055 
       0.361624         793.981          500.47 
       0.377134         738.376         460.155 
       0.392932         712.184         423.826 
       0.408854         688.439          391.07 
       0.424564         646.379         362.057 
       0.440253         633.043         336.088 
       0.455999         601.461         312.607 
       0.471626         569.361         291.489 
        0.48727         551.073         272.296 
       0.502856         535.807         254.904 
       0.518488         528.758         238.987 
       0.534347         494.425         224.221 
       0.550082         475.172         210.806 
       0.565732         475.079         198.555 
       0.581496         446.267         187.201 
       0.597222         440.382         176.758 
       0.612804          427.49         167.201 
       0.628434         412.072         158.327 
       0.644267         400.411         149.996 
       0.660051         388.689          142.29 
       0.675724         385.524         135.176 
       0.691403         372.996         128.547 
       0.707174         359.601         122.329 
       0.722871         355.624          116.55 
        0.73838         350.112         111.209 
       0.754018         339.384         106.163 
       0.769845         329.416         101.377 
        0.78569         327.953         96.8816 
       0.801365         317.004         92.7038 
       0.817031          307.94         88.7757 
       0.832809         304.611         85.0508 
       0.848511         296.534         81.5569 
       0.864097         291.114         78.2838 
       0.879701         286.905         75.1878 
       0.895507         281.066         72.2231 
       0.911279         272.023         69.4251 
        0.92691         269.926         66.7991 
       0.942635         264.172         64.2949 
       0.958396         259.755         61.9143 
       0.974128         254.842         59.6592 
       0.989692         249.623         57.5392 
        1.00528         245.996         55.5196 
        1.02113         243.698         53.5657 
        1.03692         237.609         51.7136 
        1.05264         233.411         49.9581 
        1.06832         229.093         48.2871 
        1.08405          224.29         46.6885 
        1.09979         222.214         45.1617 
        1.11537         217.276         43.7186 
        1.13105         212.471         42.3302 
        1.14679         212.509          40.997 
        1.16256         207.726         39.7189 
        1.17828         203.849         38.4997 
        1.19395             201          37.336 
         1.2097         199.918         36.2147 
        1.22537         194.565          35.145 
          1.241          193.67         34.1219 
        1.25666         188.559         33.1371 
        1.27241         186.406         32.1867 
        1.28819         183.502         31.2721 
        1.30392         180.789         30.3958 
        1.31957         179.676         29.5571 
        1.33529         175.207         28.7471 
        1.35108         172.694         27.9643 
        1.36674          171.53         27.2164 
         1.3824         168.276         26.4966 
        1.39811          168.19         25.8005 
        1.41389         164.181         25.1269 
        1.42964         161.099         24.4785 
        1.44531         158.683         23.8562 
        1.46101         157.401         23.2543 
        1.47667         153.767          22.675 
        1.49229         151.913         22.1171 
        1.50793         150.583         21.5773 
        1.52367         148.732         21.0522 
        1.53953          145.51          20.541 
        1.55526         143.618          20.051 
        1.57092         142.166          19.579 
        1.58662         139.494         19.1211 
        1.60235         138.194          18.677 
        1.61809         136.323         18.2469 
        1.63369         134.329         17.8341 
        1.64941         132.226         17.4312 
        1.66519         130.366         17.0393 
        1.68085         129.625         16.6623 
        1.69652         126.546         16.2966 
        1.71228         125.705         15.9398 
        1.72806         123.901         15.5935 
        1.74368         122.727         15.2609 
        1.75933         120.872         14.9374 
        1.77505         118.905         14.6218 
        1.79081         118.056         14.3147 
         1.8065         116.122         14.0178 
        1.82218         114.056         13.7296 
        1.83797         112.721         13.4476 
        1.85367         111.338          13.175 
        1.86928         110.242         12.9117 
        1.88497         107.697         12.6541 
        1.90073          107.22         12.4026 
        1.91647          105.34         12.1582 
        1.93218         104.166         11.9209 
        1.94787         102.973         11.6903 
        1.96363         101.632         11.4649 
        1.97935         99.6464         11.2459 
        1.99499         98.8872         11.0339 
        2.01064         97.6035          10.827 
         2.0264         96.2396         10.6242 
        2.04216         95.4008         10.4267 
        2.05781         93.9785         10.2354 
        2.07353         92.6812         10.0483 
        2.08928         91.5512         9.86539 
        2.10499         89.9576         9.68758 
        2.12065         89.5101         9.51469 
        2.13633         88.3994         9.34587 
        2.15211         87.2615         9.18007 
        2.16785         85.6093         9.01876 
        2.18349         84.5857         8.86234 
        2.19916         83.9479          8.7093 
        2.21489         82.8511         8.55938 
        2.23063         81.2885         8.41289 
         2.2463         80.8756         8.27049 
        2.26194          80.238         8.13175 
        2.27765         78.5976         7.99548 
        2.29341         77.8804         7.86198 
        2.30914         76.5699         7.73181 
        2.32486         75.9954         7.60467 
        2.34061         75.1297         7.48017 
        2.35635         73.8725         7.35858 
        2.37203         72.7611         7.24011 
        2.38768         72.1157          7.1245 
        2.40339         71.4829           7.011 
        2.41914         70.1735          6.8997 
        2.43483         70.0064         6.79122 
         2.4505         68.7352         6.68526 
        2.46622         68.0366         6.58119 
        2.48195         67.1473         6.47934 
        2.49759         66.3959         6.38019 
        2.51328         65.6638         6.28285 
        2.52906         64.9146         6.18693 
        2.54479         64.3078         6.09338 
        2.56049         63.3207         6.00194 
        2.57618         62.7274         5.91246 
        2.59189         61.7356         5.82467 
        2.60758         61.0778          5.7388 
        2.62325         60.5592         5.65477 
        2.63898         59.7646         5.57213 
        2.65468         59.1202         5.49131 
        2.67044         58.2921         5.41176 
        2.68618              58         5.33396 
        2.70184         57.3822         5.25801 
        2.71755         56.7482         5.18334 
        2.73329         55.8561         5.11001 
        2.74897         55.1673         5.03834 
        2.76462         54.5986         4.96821 
        2.78034         53.9521         4.89912 
        2.79607          53.431         4.83127 
        2.81179          52.655         4.76479 
        2.82749         52.2732         4.69963 
        2.84321         51.5587         4.63562 
        2.85893         50.9603         4.57282 
        2.87462         50.3552         4.51129 
        2.89033         49.9414         4.45084 
        2.90605         49.2124         4.39144 
        2.92176          48.854         4.33316 
        2.93747         48.2476         4.27597 
        2.95318         47.6064          4.2198 
        2.96891          47.007         4.16461 
        2.98456          46.646         4.11065 
        3.00023         45.9369         4.05757 
        3.01596         45.6065         4.00526 
        3.03164         44.9335         3.95403 
        3.04738         44.5071         3.90354 
         3.0631         44.1347         3.85395 
        3.07883          43.645         3.80522 
        3.09456         43.3629         3.75734 
        3.11026         42.6881         3.71036 
        3.12596         42.2917         3.66418 
        3.14163         41.7538          3.6189 
        3.15734         41.2504         3.57428 
        3.17308         40.9947         3.53031 
        3.18879         40.5973         3.48719 
        3.20447         39.9953         3.44486 
         3.2202         39.7207          3.4031 
         3.2359         39.2324          3.3621 
        3.25157          38.919         3.32188 
        3.26729         38.4486          3.2822 
        3.28304          37.963         3.24308 
        3.29877         37.5962         3.20466 
        3.31446         37.2455         3.16694 
        3.33014         36.9965         3.12986 
        3.34585         36.5597         3.09332 
        3.36158         36.1204          3.0573 
        3.37727         35.6909         3.02198 
        3.39294         35.3798         2.98724 
        3.40867          34.907         2.95292 
        3.42439         34.6611         2.91917 
        3.44008         34.4031           2.886 
        3.45578         33.8906         2.85333 
        3.47153         33.5691         2.82109 
        3.48724         33.3452         2.78941 
        3.50292          33.065         2.75828 
        3.51859          32.544         2.72765 
        3.53431         32.2653         2.69738 
        3.55007         31.9542          2.6675 
        3.56577         31.6509          2.6382 
        3.58146         31.2271         2.60934 
        3.59719         31.0405         2.58085 
        3.61292          30.737         2.55279 
        3.62859         30.4791         2.52526 
        3.64429         30.1109         2.49808 
        3.66003         29.8222         2.47122 
        3.67578         29.5162         2.44476 
        3.69146         29.3154         2.41879 
        3.70712         28.9706         2.39324 
        3.72284         28.7119         2.36797 
        3.73853         28.5236         2.34311 
        3.75422         28.1715         2.31859 
        3.76993         27.9832          2.2944 
        3.78564         27.6925         2.27057 
        3.80137         27.3542         2.24704 
        3.81707         27.1143         2.22389 
        3.83279         26.8747         2.20105 
        3.84853         26.6788         2.17849 
        3.86424         26.4133          2.1563 
        3.87992         26.1569         2.13444 
        3.89561         25.9146         2.11289 
        3.91134         25.6257         2.09159 
        3.92704         25.3983         2.07061 
        3.94273         25.1542         2.04993 
        3.95845         24.8584          2.0295 
        3.97418         24.7817         2.00935 
        3.98988         24.4602         1.98949 
        4.00554          24.235         1.96996 
        4.02125         24.0357         1.95064 
        4.03698         23.7514         1.93154 
        4.05268         23.6065         1.91274 
        4.06839         23.3319         1.89418 
         4.0841         23.1743         1.87587 
        4.09983         22.9886         1.85778 
        4.11555         22.7935         1.83993 
        4.13124         22.5504         1.82237 
        4.14693         22.3403         1.80502 
        4.16266          22.089         1.78786 
        4.17839         21.9631         1.77093 
        4.19408         21.7495         1.75426 
        4.20977         21.5136         1.73779 
        4.22551         21.3563          1.7215 
        4.24123         21.1459         1.70543 
        4.25691         20.9722         1.68961 
        4.27259         20.7645         1.67399 
        4.28831         20.6044         1.65853 
        4.30404         20.3806         1.64325 
        4.31974         20.2577          1.6282 
        4.33543         20.0463         1.61335 
        4.35116         19.9175         1.59864 
        4.36688         19.7157         1.58413 
        4.38255         19.5506         1.56985 
        4.39825         19.4231         1.55571 
        4.41398         19.2409         1.54172 
         4.4297          19.066         1.52791 
        4.44541         18.9137         1.51428 
        4.46111           18.72         1.50083 
        4.47683         18.5703         1.48752 
        4.49251         18.4092         1.47441 
        4.50819          18.281         1.46146 
         4.5239         18.1255         1.44864 
        4.53962         17.9785         1.43597 
        4.55535         17.8184         1.42343 
        4.57106         17.6844         1.41107 
        4.58678         17.5093         1.39885 
         4.6025         17.3793         1.38677 
        4.61821         17.2182         1.37484 
        4.63391         17.0824         1.36306 
         4.6496         16.9239         1.35142 
        4.66532         16.7718          1.3399 
        4.68103         16.6421         1.32853 
        4.69673          16.505         1.31729 
        4.71241         16.3881          1.3062 
        4.72811         16.2364         1.29521 
        4.74384         16.1382         1.28434 
        4.75955          15.949         1.27361 
        4.77525         15.8451           1.263 
        4.79096         15.7366         1.25251 
        4.80669         15.6272         1.24213 
         4.8224         15.4432         1.23187 
        4.83809          15.308         1.22175 
        4.85379          15.228         1.21173 
         4.8695          15.118         1.20182 
        4.88521         14.9785         1.19202 
        4.90093         14.8649         1.18233 
        4.91663         14.7314         1.17276 
        4.93234         14.6125         1.16328 
        4.94807         14.5091          1.1539 
        4.96377         14.3983         1.14464 
        4.97943         14.3073          1.1355 
        4.99514         14.1761         1.12644 
        5.01086         14.0439         1.11747 
        5.02654         13.9009         1.10862 
        5.04227         13.8367         1.09984 
          5.058         13.7004         1.09115 
        5.07371         13.6353         1.08257 
        5.08942         13.5367         1.07408 
        5.10513         13.4291         1.06569 
        5.12084         13.3055         1.05738 
        5.13656         13.1943         1.04916 
        5.15225            13.1         1.04104 
        5.16796         12.9556         1.03299 
        5.18369          12.903         1.02502 
         5.1994         12.8103         1.01715 
        5.21509         12.6919         1.00937 
        5.23079         12.5899         1.00166 
        5.24649         12.5073        0.994037 
        5.26217         12.4429        0.986499 
        5.27788         12.3034        0.979029 
        5.29359         12.2295        0.971634 
        5.30933          12.099        0.964306 
        5.32504         12.0507        0.957065 
        5.34073         11.9383        0.949906 
        5.35646         11.8673        0.942807 
        5.37218         11.7456        0.935778 
        5.38789         11.6837        0.928833 
        5.40357         11.5842        0.921966 
        5.41929         11.5026        0.915153 
        5.43502         11.4349        0.908408 
         5.4507         11.3412        0.901747 
        5.46639         11.2338        0.895152 
        5.48212         11.1731        0.888607 
        5.49786          11.104         0.88212 
        5.51353         11.0044         0.87573 
        5.52921         10.9314        0.869397 
        5.54495         10.8597        0.863108 
        5.56066         10.7682        0.856887 
        5.57637         10.6803        0.850729 
        5.59207         10.6107        0.844637 
        5.60778         10.5297        0.838602 
        5.62346         10.4786        0.832635 
        5.63916          10.385         0.82672 
        5.65487         10.3004        0.820859 
         5.6706         10.2518        0.815048 
        5.68633         10.1613        0.809292 
        5.70203         10.0932        0.803602 
        5.71773          10.009        0.797969 
        5.73344         9.94908        0.792386 
        5.74916         9.88381        0.786852 
        5.76486         9.80144        0.781377 
        5.78054         9.73016        0.775964 
        5.79626         9.65402        0.770586 
          5.812         9.59278        0.765255 
         5.8277         9.51576        0.759989 
        5.84339         9.45061        0.754772 
        5.85911         9.39117        0.749595 
        5.87484         9.33311        0.744467 
        5.89053         9.26949        0.739397 
        5.90623          9.1882        0.734372 
        5.92195         9.14189        0.729385 
        5.93767         9.06368        0.724447 
        5.95336         8.99926        0.719563 
        5.96905         8.95004        0.714726 
        5.98476         8.89351        0.709926 
        6.00048         8.80683        0.705169 
        6.01617         8.75445        0.700461 
        6.03185         8.68515        0.695803 
        6.04756         8.63616        0.691175 
        6.06331         8.58508         0.68658 
        6.07903         8.52134        0.682036 
        6.09473         8.47049        0.677538 
        6.11044         8.40657        0.673076 
        6.12616         8.34754        0.668655 
        6.14186         8.29476        0.664278 
        6.15755         8.23465         0.65994 
        6.17326         8.17761        0.655638 
        6.18898         8.13143        0.651372 
        6.20467         8.06285        0.647151 
        6.22036         8.01487        0.642969 
         6.2361         7.95002        0.638812 
         6.2518         7.90976        0.634698 
        6.26748         7.86033         0.63063 
        6.28319         7.81252        0.626586 
        6.29893         7.74275        0.622574 
        6.31463         7.69329        0.618604 
        6.33033         7.65925         0.61467 
        6.34604         7.59839        0.610767 
        6.36177         7.55671        0.606894 
        6.37747         7.51068        0.603063 
