# k  (h/Mpc)    Pcb(k)  (Mpc/h)^3    Pcb_linear(k) (Mpc/h)^3   ShotnoiseSubtracted = true
      0.0200456         10363.5         10551.5 
      0.0350414         8016.85         8273.46 
      0.0492313         6459.84         6555.13 
      0.0637834         5412.93         5330.36 
      0.0800726         4114.85         4026.58 
       0.096163         3072.04         3167.16 
       0.111083         2561.03            2681 
       0.126058         2254.41         2228.67 
       0.142273         1890.24         1813.55 
       0.158546         1664.43         1544.94 
        0.17375         1364.49         1344.15 
       0.188953         1280.99         1155.56 
       0.204907         1193.55          1000.3 
       0.220756         1034.72         884.105 
        0.23588         916.805         785.277 
         0.2514         796.899         695.818 
       0.267535         773.731         620.551 
       0.283568          705.68         557.619 
       0.299022         659.883         503.546 
       0.314451         619.985         456.544 
       0.330372         572.021          415.11 
       0.346141         523.017         378.947 
       0.361624          500.56         347.312 
       0.377134         467.009         319.335 
       0.392932         444.287         294.124 
       0.408854         426.366         271.392 
       0.424564         405.875         251.258 
       0.440253         392.134         233.236 
       0.455999         369.818         216.941 
       0.471626         343.795         202.285 
        0.48727         335.387         188.966 
       0.502856         324.313         176.896 
       0.518488         320.461          165.85 
       0.534347         301.277         155.603 
       0.550082         283.861         146.293 
       0.565732         280.563         137.792 
       0.581496         265.815         129.912 
       0.597222         260.124         122.665 
       0.612804         250.753         116.033 
       0.628434          241.62         109.874 
       0.644267         233.848         104.093 
       0.660051         230.438         98.7455 
       0.675724         226.311         93.8081 
       0.691403         219.575         89.2078 
       0.707174         210.227         84.8928 
       0.722871         208.404         80.8826 
        0.73838         203.876         77.1758 
       0.754018         197.804         73.6743 
       0.769845         191.955         70.3526 
        0.78569         190.105         67.2331 
       0.801365         184.447         64.3338 
       0.817031         178.437         61.6079 
       0.832809         175.421         59.0229 
       0.848511         171.457         56.5982 
       0.864097         168.512         54.3268 
       0.879701          164.84         52.1782 
       0.895507         160.806         50.1208 
       0.911279         157.413         48.1791 
        0.92691         155.758         46.3567 
       0.942635         152.388         44.6189 
       0.958396         151.922         42.9668 
       0.974128         147.497         41.4018 
       0.989692         143.614         39.9306 
        1.00528         141.168          38.529 
        1.02113         140.332         37.1731 
        1.03692         134.967         35.8878 
        1.05264         133.802         34.6695 
        1.06832         131.092         33.5099 
        1.08405         129.187         32.4005 
        1.09979         128.573          31.341 
        1.11537         124.245         30.3395 
        1.13105         123.768          29.376 
        1.14679         122.564         28.4508 
        1.16256         120.609         27.5638 
        1.17828         117.415         26.7177 
        1.19395         116.433         25.9101 
         1.2097         113.919          25.132 
        1.22537         113.347         24.3896 
          1.241         110.749         23.6796 
        1.25666         108.673         22.9962 
        1.27241         107.473         22.3366 
        1.28819         105.696         21.7019 
        1.30392         104.402         21.0938 
        1.31957         102.539         20.5118 
        1.33529         100.775         19.9497 
        1.35108         99.6034         19.4065 
        1.36674         98.4572         18.8874 
         1.3824         96.6903         18.3879 
        1.39811         95.5694         17.9048 
        1.41389         94.1118         17.4373 
        1.42964         92.9259         16.9874 
        1.44531         90.6793         16.5555 
        1.46101         89.9153         16.1378 
        1.47667           89.13         15.7358 
        1.49229         87.4008         15.3486 
        1.50793         86.6178         14.9741 
        1.52367         85.5737         14.6096 
        1.53953         84.1053         14.2549 
        1.55526         83.2017         13.9148 
        1.57092         82.6193         13.5873 
        1.58662         81.0493         13.2695 
        1.60235         80.3338         12.9613 
        1.61809         79.1492         12.6628 
        1.63369         77.9945         12.3764 
        1.64941         77.1539         12.0968 
        1.66519         75.7056         11.8248 
        1.68085         74.9483         11.5632 
        1.69652         73.6141         11.3094 
        1.71228          73.223         11.0618 
        1.72806         72.2097         10.8214 
        1.74368         71.3108         10.5906 
        1.75933         70.4548         10.3661 
        1.77505          69.675         10.1471 
        1.79081         68.5145         9.93402 
         1.8065         67.9472         9.72798 
        1.82218         66.7587         9.52798 
        1.83797          66.353         9.33225 
        1.85367         65.4062          9.1431 
        1.86928         65.0672         8.96035 
        1.88497         63.7432          8.7816 
        1.90073         62.9148         8.60708 
        1.91647         62.6064         8.43746 
        1.93218         61.5672         8.27278 
        1.94787         60.8369         8.11275 
        1.96363         59.8604         7.95632 
        1.97935         59.6403         7.80435 
        1.99499         58.6004         7.65721 
        2.01064         58.3824         7.51366 
         2.0264         57.0297         7.37289 
        2.04216         56.4389         7.23581 
        2.05781         55.8381         7.10308 
        2.07353         55.2213         6.97321 
        2.08928         54.4513         6.84631 
        2.10499            54.1         6.72291 
        2.12065          53.438         6.60293 
        2.13633         53.0202         6.48577 
        2.15211         52.5508         6.37071 
        2.16785         51.6254         6.25876 
        2.18349         51.3562         6.15021 
        2.19916         50.6349         6.04401 
        2.21489         50.2499         5.93997 
        2.23063         49.4801         5.83831 
         2.2463         49.0634         5.73949 
        2.26194         48.1441         5.64321 
        2.27765          47.709         5.54864 
        2.29341         47.2114           5.456 
        2.30914         46.5177         5.36566 
        2.32486         45.9212         5.27743 
        2.34061         45.5166         5.19103 
        2.35635         45.1395         5.10665 
        2.37203         44.4066         5.02443 
        2.38768         44.0913          4.9442 
        2.40339         43.6236         4.86543 
        2.41914         43.2758          4.7882 
        2.43483         42.6732         4.71292 
         2.4505          42.203         4.63938 
        2.46622         41.8397         4.56716 
        2.48195         41.3262         4.49648 
        2.49759         40.8207         4.42767 
        2.51328         40.2604         4.36012 
        2.52906         40.0051         4.29356 
        2.54479         39.4118         4.22863 
        2.56049         38.9191         4.16518 
        2.57618         38.5349         4.10308 
        2.59189         38.1308         4.04216 
        2.60758         37.7728         3.98257 
        2.62325         37.3706         3.92425 
        2.63898         36.9767          3.8669 
        2.65468         36.4441         3.81082 
        2.67044         36.1386         3.75561 
        2.68618         35.7878         3.70162 
        2.70184         35.3712         3.64891 
        2.71755         35.1249         3.59709 
        2.73329         34.5747         3.54621 
        2.74897         34.2632         3.49647 
        2.76462         33.7816          3.4478 
        2.78034         33.5652         3.39985 
        2.79607         33.1764         3.35277 
        2.81179         32.8717         3.30663 
        2.82749         32.5556         3.26141 
        2.84321         32.1481         3.21699 
        2.85893         31.7791         3.17341 
        2.87462         31.4276         3.13071 
        2.89033         31.1788         3.08876 
        2.90605         30.8746         3.04754 
        2.92176         30.6912         3.00709 
        2.93747         30.2388          2.9674 
        2.95318         29.8463         2.92842 
        2.96891         29.5699         2.89012 
        2.98456         29.3009         2.85268 
        3.00023         28.9874         2.81584 
        3.01596         28.6428         2.77954 
        3.03164         28.4909         2.74398 
        3.04738          28.225         2.70895 
         3.0631         27.8777         2.67453 
        3.07883         27.5908         2.64072 
        3.09456         27.2702         2.60749 
        3.11026         27.0406         2.57488 
        3.12596          26.791         2.54284 
        3.14163         26.4931         2.51142 
        3.15734         26.2563         2.48045 
        3.17308         25.9319         2.44993 
        3.18879         25.6845         2.42001 
        3.20447           25.47         2.39064 
         3.2202         25.1975         2.36165 
         3.2359         24.9418         2.33321 
        3.25157         24.8289         2.30529 
        3.26729         24.5909         2.27775 
        3.28304          24.226         2.25061 
        3.29877         23.8977         2.22394 
        3.31446         23.7817         2.19777 
        3.33014         23.5684         2.17203 
        3.34585         23.3531         2.14667 
        3.36158         23.0579         2.12168 
        3.37727         22.8386         2.09717 
        3.39294         22.6814         2.07306 
        3.40867         22.4485         2.04925 
        3.42439         22.1919         2.02582 
        3.44008         22.0085         2.00281 
        3.45578         21.8965         1.98013 
        3.47153         21.5311         1.95776 
        3.48724         21.3429         1.93577 
        3.50292         21.2103         1.91417 
        3.51859          20.962         1.89291 
        3.53431         20.7598         1.87191 
        3.55007         20.5621         1.85117 
        3.56577         20.3552         1.83083 
        3.58146         20.2409         1.81081 
        3.59719         19.9882         1.79104 
        3.61292         19.7735         1.77157 
        3.62859         19.6015         1.75246 
        3.64429         19.4511          1.7336 
        3.66003         19.2923         1.71496 
        3.67578          19.065         1.69659 
        3.69146         18.8939         1.67857 
        3.70712         18.7184         1.66084 
        3.72284         18.6195          1.6433 
        3.73853         18.3449         1.62605 
        3.75422         18.2006         1.60904 
        3.76993         18.0746         1.59225 
        3.78564         17.8523         1.57571 
        3.80137         17.7236         1.55938 
        3.81707         17.5417         1.54332 
        3.83279         17.4118         1.52747 
        3.84853         17.2201         1.51181 
        3.86424         17.0873         1.49641 
        3.87992         16.9298         1.48124 
        3.89561         16.7551         1.46628 
        3.91134         16.5913          1.4515 
        3.92704         16.5037         1.43694 
        3.94273         16.3325          1.4226 
        3.95845         16.1639         1.40842 
        3.97418         16.0417         1.39443 
        3.98988         15.8842         1.38065 
        4.00554         15.7479          1.3671 
        4.02125         15.6066         1.35369 
        4.03698         15.4794         1.34044 
        4.05268         15.3129         1.32739 
        4.06839         15.2093         1.31451 
         4.0841         15.0709          1.3018 
        4.09983         14.9065         1.28925 
        4.11555         14.7848         1.27686 
        4.13124         14.6778         1.26467 
        4.14693         14.5006         1.25263 
        4.16266         14.4209         1.24072 
        4.17839         14.3038         1.22897 
        4.19408         14.1236          1.2174 
        4.20977         14.0456         1.20598 
        4.22551         13.9413         1.19467 
        4.24123         13.8157         1.18352 
        4.25691         13.6723         1.17254 
        4.27259         13.5669          1.1617 
        4.28831         13.4129         1.15097 
        4.30404         13.3625         1.14037 
        4.31974         13.1977         1.12993 
        4.33543         13.0912         1.11962 
        4.35116         13.0065         1.10941 
        4.36688         12.9077         1.09934 
        4.38255         12.7743         1.08943 
        4.39825         12.6514         1.07962 
        4.41398         12.6005         1.06991 
         4.4297         12.4591         1.06033 
        4.44541         12.3805         1.05087 
        4.46111         12.2583         1.04153 
        4.47683          12.151          1.0323 
        4.49251         12.0657          1.0232 
        4.50819         11.9588         1.01421 
         4.5239         11.8939         1.00532 
        4.53962          11.743         0.99652 
        4.55535         11.6578        0.987823 
        4.57106          11.562        0.979242 
        4.58678         11.4545        0.970761 
         4.6025         11.3528        0.962379 
        4.61821         11.2977        0.954097 
        4.63391         11.1934        0.945923 
         4.6496         11.1083        0.937849 
        4.66532         10.9775        0.929856 
        4.68103         10.9113        0.921959 
        4.69673         10.8282        0.914162 
        4.71241         10.7158        0.906463 
        4.72811         10.6308        0.898839 
        4.74384         10.5711        0.891294 
        4.75955         10.4627        0.883847 
        4.77525         10.3839        0.876489 
        4.79096         10.3276        0.869205 
        4.80669         10.2496        0.862001 
         4.8224         10.1297        0.854887 
        4.83809         10.0694         0.84786 
        4.85379          10.017        0.840908 
         4.8695         9.92435        0.834028 
        4.88521         9.81208        0.827229 
        4.90093         9.74478        0.820504 
        4.91663         9.66826        0.813859 
        4.93234           9.607        0.807281 
        4.94807         9.54579        0.800772 
        4.96377         9.43078        0.794346 
        4.97943         9.37115        0.788005 
        4.99514         9.30369        0.781716 
        5.01086         9.25333        0.775491 
        5.02654         9.18554         0.76935 
        5.04227         9.08662        0.763257 
          5.058         9.01106        0.757227 
        5.07371         8.97771        0.751274 
        5.08942         8.89127        0.745385 
        5.10513         8.82253        0.739558 
        5.12084         8.74571         0.73379 
        5.13656         8.71283        0.728085 
        5.15225          8.6136         0.72245 
        5.16796         8.54695        0.716865 
        5.18369         8.50011        0.711335 
         5.1994         8.42144        0.705873 
        5.21509          8.3683        0.700473 
        5.23079          8.3137        0.695123 
        5.24649         8.24068        0.689834 
        5.26217         8.17507        0.684603 
        5.27788         8.11386        0.679419 
        5.29359         8.05752        0.674287 
        5.30933         7.98738        0.669201 
        5.32504         7.93079        0.664176 
        5.34073         7.88561        0.659208 
        5.35646          7.8215        0.654282 
        5.37218         7.76798        0.649404 
        5.38789         7.72596        0.644584 
        5.40357         7.65891        0.639818 
        5.41929          7.5987         0.63509 
        5.43502         7.52273        0.630409 
         5.4507         7.48867        0.625787 
        5.46639         7.43845         0.62121 
        5.48212          7.3833        0.616668 
        5.49786         7.34065        0.612167 
        5.51353         7.27999        0.607732 
        5.52921         7.22326        0.603337 
        5.54495         7.17459        0.598972 
        5.56066         7.11956        0.594656 
        5.57637         7.07565        0.590382 
        5.59207         7.03192        0.586155 
        5.60778         6.96061        0.581967 
        5.62346         6.91411        0.577825 
        5.63916         6.86914         0.57372 
        5.65487         6.82621        0.569653 
         5.6706         6.76898        0.565621 
        5.68633         6.71776        0.561626 
        5.70203         6.69268        0.557677 
        5.71773         6.63962        0.553768 
        5.73344         6.58005        0.549894 
        5.74916         6.54837        0.546053 
        5.76486         6.51045        0.542254 
        5.78054         6.44738        0.538497 
        5.79626         6.38891        0.534765 
          5.812         6.35777        0.531065 
         5.8277         6.32212        0.527411 
        5.84339         6.27782        0.523791 
        5.85911         6.23928        0.520198 
        5.87484         6.19756        0.516639 
        5.89053         6.14476        0.513121 
        5.90623         6.11085        0.509634 
        5.92195         6.06211        0.506173 
        5.93767         6.03131        0.502746 
        5.95336         5.98195        0.499356 
        5.96905          5.9416           0.496 
        5.98476         5.90077        0.492669 
        6.00048          5.8728        0.489367 
        6.01617         5.82874        0.486101 
        6.03185          5.7874        0.482868 
        6.04756         5.74761        0.479656 
        6.06331         5.70269        0.476467 
        6.07903         5.67297        0.473314 
        6.09473         5.63753        0.470192 
        6.11044         5.59655        0.467096 
        6.12616         5.56089        0.464028 
        6.14186         5.53247         0.46099 
        6.15755         5.48934         0.45798 
        6.17326         5.45293        0.454994 
        6.18898         5.40878        0.452034 
        6.20467         5.37605        0.449105 
        6.22036         5.34383        0.446202 
         6.2361         5.29442        0.443317 
         6.2518         5.27293        0.440463 
        6.26748         5.24004        0.437639 
        6.28319          5.1913        0.434833 
        6.29893         5.16317        0.432049 
        6.31463         5.13881        0.429294 
        6.33033         5.10228        0.426564 
        6.34604         5.07006        0.423855 
        6.36177         5.04208        0.421168 
        6.37747         5.00952        0.418509 
