# k  (h/Mpc)    Pcb(k)  (Mpc/h)^3    Pcb_linear(k) (Mpc/h)^3   ShotnoiseSubtracted = true
      0.0200456         28809.1         29594.1 
      0.0350414           21827         23204.8 
      0.0492313         17643.7         18385.3 
      0.0637834         15098.4         14950.2 
      0.0800726           11466         11293.4 
       0.096163         8378.24         8883.01 
       0.111083         7074.98         7519.45 
       0.126058         6277.82          6250.8 
       0.142273         5337.62         5086.51 
       0.158546          4986.4         4333.11 
        0.17375         4073.79         3769.96 
       0.188953         3955.51         3241.01 
       0.204907         3706.38         2805.56 
       0.220756         3271.34         2479.67 
        0.23588         2973.84         2202.49 
         0.2514         2629.48         1951.58 
       0.267535         2642.15         1740.47 
       0.283568          2396.2         1563.97 
       0.299022         2296.85         1412.31 
       0.314451         2183.73         1280.48 
       0.330372         1989.03         1164.27 
       0.346141         1990.51         1062.84 
       0.361624         1911.91         974.115 
       0.377134         1798.93         895.645 
       0.392932         1721.21         824.935 
       0.408854         1686.34         761.179 
       0.424564         1555.81         704.708 
       0.440253         1525.08         654.161 
       0.455999         1515.79         608.458 
       0.471626         1447.57         567.353 
        0.48727         1401.98         529.997 
       0.502856         1333.37         496.146 
       0.518488            1355         465.164 
       0.534347         1260.49         436.424 
       0.550082         1255.35         410.312 
       0.565732         1230.41         386.468 
       0.581496         1181.77         364.367 
       0.597222         1145.27         344.042 
       0.612804         1131.08         325.439 
       0.628434         1097.61         308.167 
       0.644267         1072.63         291.952 
       0.660051         1054.04         276.954 
       0.675724         1042.19         263.106 
       0.691403         1015.49         250.203 
       0.707174         978.873         238.101 
       0.722871          951.38         226.853 
        0.73838         941.696         216.457 
       0.754018         920.827         206.636 
       0.769845         907.527         197.319 
        0.78569         894.751          188.57 
       0.801365         868.328         180.439 
       0.817031         855.476         172.793 
       0.832809         839.078         165.543 
       0.848511         823.472         158.742 
       0.864097         799.244         152.372 
       0.879701         783.723         146.345 
       0.895507         777.125         140.575 
       0.911279         769.683         135.129 
        0.92691         746.327         130.018 
       0.942635         726.536         125.144 
       0.958396         721.235          120.51 
       0.974128         707.445         116.121 
       0.989692         695.913         111.994 
        1.00528         674.454         108.063 
        1.02113         674.478          104.26 
        1.03692         658.161         100.655 
        1.05264         647.776         97.2383 
        1.06832         635.729          93.986 
        1.08405         621.584         90.8745 
        1.09979         610.593         87.9027 
        1.11537         601.692         85.0938 
        1.13105         593.259         82.3915 
        1.14679         580.955         79.7966 
        1.16256         572.366         77.3089 
        1.17828         564.497         74.9358 
        1.19395         554.539         72.6708 
         1.2097         539.886         70.4882 
        1.22537         532.539         68.4061 
          1.241          523.02         66.4147 
        1.25666         521.433          64.498 
        1.27241         508.393         62.6481 
        1.28819         495.082         60.8679 
        1.30392         492.104         59.1623 
        1.31957         479.126         57.5299 
        1.33529         472.697         55.9533 
        1.35108         464.403         54.4297 
        1.36674         455.974          52.974 
         1.3824         451.353          51.573 
        1.39811          439.96         50.2181 
        1.41389         435.829         48.9069 
        1.42964         431.029         47.6449 
        1.44531         424.593         46.4337 
        1.46101         417.244         45.2621 
        1.47667         406.984         44.1346 
        1.49229         403.557         43.0487 
        1.50793         392.425         41.9981 
        1.52367         390.098          40.976 
        1.53953         378.702         39.9811 
        1.55526         378.856         39.0272 
        1.57092         373.838         38.1086 
        1.58662         366.151         37.2173 
        1.60235         361.587          36.353 
        1.61809         357.186         35.5157 
        1.63369         348.544         34.7123 
        1.64941         342.767         33.9281 
        1.66519         338.215         33.1653 
        1.68085          335.54         32.4315 
        1.69652         331.689         31.7197 
        1.71228         323.889         31.0252 
        1.72806         321.782         30.3511 
        1.74368         314.797         29.7038 
        1.75933          310.08         29.0741 
        1.77505          305.12         28.4598 
        1.79081         301.647         27.8622 
         1.8065         296.791         27.2843 
        1.82218         294.246         26.7233 
        1.83797         288.875         26.1744 
        1.85367         283.405         25.6439 
        1.86928         279.735         25.1313 
        1.88497         276.385         24.6299 
        1.90073         271.968         24.1405 
        1.91647         267.942         23.6647 
        1.93218         264.011         23.2029 
        1.94787         260.948          22.754 
        1.96363         257.436         22.3153 
        1.97935         252.645          21.889 
        1.99499         249.078         21.4764 
        2.01064         245.939         21.0737 
         2.0264         242.249         20.6789 
        2.04216         239.796         20.2944 
        2.05781         236.766         19.9222 
        2.07353         232.282         19.5579 
        2.08928          229.79          19.202 
        2.10499         226.104         18.8559 
        2.12065         222.498         18.5194 
        2.13633         220.595         18.1908 
        2.15211         217.675         17.8681 
        2.16785         215.639         17.5541 
        2.18349         212.471         17.2496 
        2.19916         208.521         16.9518 
        2.21489         207.591           16.66 
        2.23063         204.273         16.3748 
         2.2463         201.108         16.0977 
        2.26194         198.209         15.8276 
        2.27765         195.015         15.5624 
        2.29341         193.178         15.3026 
        2.30914         190.431         15.0492 
        2.32486         188.739         14.8017 
        2.34061         185.125         14.5594 
        2.35635         184.628         14.3227 
        2.37203         181.194         14.0921 
        2.38768           178.1         13.8671 
        2.40339         176.945         13.6462 
        2.41914         174.265         13.4296 
        2.43483         172.618         13.2184 
         2.4505         169.519         13.0122 
        2.46622         168.922         12.8096 
        2.48195         166.163         12.6114 
        2.49759          164.02         12.4184 
        2.51328         161.613         12.2289 
        2.52906         159.937         12.0422 
        2.54479         158.398         11.8601 
        2.56049         156.553         11.6822 
        2.57618         154.777          11.508 
        2.59189         152.858         11.3371 
        2.60758         150.517           11.17 
        2.62325         149.184         11.0064 
        2.63898         146.741         10.8456 
        2.65468         146.156         10.6883 
        2.67044         144.537         10.5334 
        2.68618         142.684          10.382 
        2.70184         140.784         10.2342 
        2.71755         139.373         10.0889 
        2.73329         136.996         9.94613 
        2.74897         136.004         9.80663 
        2.76462         134.426         9.67012 
        2.78034         133.057         9.53564 
        2.79607         131.258         9.40358 
        2.81179         129.833         9.27418 
        2.82749          128.77         9.14736 
        2.84321         126.596         9.02276 
        2.85893         125.083         8.90053 
        2.87462         123.944         8.78077 
        2.89033         122.369         8.66311 
        2.90605         122.271          8.5475 
        2.92176         119.686         8.43406 
        2.93747         118.788         8.32274 
        2.95318         117.394         8.21341 
        2.96891         116.165         8.10599 
        2.98456         114.881         8.00096 
        3.00023         113.765         7.89765 
        3.01596         112.408         7.79584 
        3.03164         111.464         7.69612 
        3.04738         109.923         7.59784 
         3.0631         108.652         7.50132 
        3.07883         107.842         7.40647 
        3.09456         106.522         7.31328 
        3.11026         105.399         7.22184 
        3.12596         104.122         7.13196 
        3.14163          102.87         7.04383 
        3.15734         102.537         6.95698 
        3.17308         101.076         6.87139 
        3.18879         99.7139         6.78747 
        3.20447         99.0442         6.70507 
         3.2202         97.8853         6.62379 
         3.2359         97.0734         6.54399 
        3.25157         96.0931         6.46571 
        3.26729         95.0723         6.38846 
        3.28304         93.8728         6.31233 
        3.29877         93.1651         6.23754 
        3.31446         91.9816         6.16412 
        3.33014         91.6959         6.09195 
        3.34585         90.1539         6.02083 
        3.36158         89.3934         5.95073 
        3.37727         88.2788         5.88197 
        3.39294          87.343         5.81436 
        3.40867         86.6279         5.74757 
        3.42439         85.6818         5.68186 
        3.44008          85.002         5.61731 
        3.45578         83.9877         5.55372 
        3.47153         83.2203         5.49097 
        3.48724         82.2765          5.4293 
        3.50292         81.6186         5.36872 
        3.51859         80.5966         5.30909 
        3.53431         79.8541         5.25018 
        3.55007          79.224         5.19203 
        3.56577         78.3868         5.13498 
        3.58146          77.908         5.07881 
        3.59719         76.8825         5.02336 
        3.61292         76.0406         4.96875 
        3.62859         75.5505         4.91516 
        3.64429         74.7594         4.86226 
        3.66003         73.9571         4.80997 
        3.67578         73.0517         4.75848 
        3.69146           72.59         4.70793 
        3.70712         71.9029          4.6582 
        3.72284         71.2345         4.60901 
        3.73853         70.6203         4.56062 
        3.75422         69.9683          4.5129 
        3.76993         69.1799         4.46583 
        3.78564         68.2284         4.41944 
        3.80137         67.9139         4.37364 
        3.81707         67.3472         4.32858 
        3.83279         66.6456         4.28412 
        3.84853         66.3074         4.24022 
        3.86424         65.4809         4.19701 
        3.87992         64.9509         4.15447 
        3.89561         64.3326         4.11252 
        3.91134         63.6073         4.07106 
        3.92704         63.2198         4.03022 
        3.94273         62.7206         3.98999 
        3.95845         62.0675         3.95022 
        3.97418         61.3002         3.91099 
        3.98988         60.8472         3.87235 
        4.00554         60.2627         3.83433 
        4.02125         59.7719         3.79672 
        4.03698         59.3306         3.75955 
        4.05268         58.6121         3.72296 
        4.06839         58.3383         3.68684 
         4.0841          57.614          3.6512 
        4.09983           57.31         3.61598 
        4.11555         56.6496         3.58125 
        4.13124         56.0924         3.54706 
        4.14693         55.7546         3.51329 
        4.16266         55.2423         3.47989 
        4.17839         54.8388         3.44693 
        4.19408         54.2172         3.41448 
        4.20977         53.8382         3.38243 
        4.22551         53.1843         3.35072 
        4.24123         52.7223         3.31945 
        4.25691          52.184         3.28866 
        4.27259         51.9478         3.25825 
        4.28831         51.6122         3.22816 
        4.30404         50.9476         3.19843 
        4.31974         50.7377         3.16913 
        4.33543         50.1317         3.14022 
        4.35116          49.724          3.1116 
        4.36688         49.2648         3.08334 
        4.38255         48.8617         3.05555 
        4.39825          48.479         3.02803 
        4.41398         48.0987          3.0008 
         4.4297         47.7058         2.97393 
        4.44541         47.2121          2.9474 
        4.46111         46.7444         2.92121 
        4.47683         46.4818         2.89532 
        4.49251         46.1505         2.86979 
        4.50819         45.5899         2.84458 
         4.5239         45.3251         2.81964 
        4.53962         44.8789         2.79496 
        4.55535         44.5483         2.77057 
        4.57106         44.2083          2.7465 
        4.58678         43.7358         2.72272 
         4.6025         43.4361         2.69921 
        4.61821         43.0473         2.67598 
        4.63391         42.7036         2.65305 
         4.6496         42.2356         2.63041 
        4.66532         41.9796         2.60799 
        4.68103          41.715         2.58584 
        4.69673         41.3486         2.56397 
        4.71241         41.0413         2.54238 
        4.72811          40.652           2.521 
        4.74384         40.3221         2.49983 
        4.75955         40.0519         2.47895 
        4.77525         39.7602         2.45831 
        4.79096         39.4037         2.43788 
        4.80669         39.0691         2.41767 
         4.8224         38.7913         2.39772 
        4.83809         38.4964         2.37801 
        4.85379         38.1311         2.35851 
         4.8695         37.8644         2.33922 
        4.88521          37.519         2.32015 
        4.90093         37.1791         2.30129 
        4.91663           36.91         2.28265 
        4.93234         36.6498          2.2642 
        4.94807         36.3967         2.24594 
        4.96377         36.0142         2.22792 
        4.97943         35.8424         2.21013 
        4.99514         35.4469          2.1925 
        5.01086         35.2289         2.17504 
        5.02654         34.9734         2.15781 
        5.04227          34.752         2.14072 
          5.058         34.3361         2.12381 
        5.07371         34.2133         2.10712 
        5.08942         33.8382          2.0906 
        5.10513         33.6656         2.07425 
        5.12084         33.3179         2.05808 
        5.13656         33.2199         2.04208 
        5.15225         32.8476         2.02627 
        5.16796          32.645         2.01061 
        5.18369         32.3911          1.9951 
         5.1994         32.1309         1.97978 
        5.21509         31.8952         1.96463 
        5.23079         31.5859         1.94963 
        5.24649         31.3738         1.93479 
        5.26217         31.1188         1.92012 
        5.27788         30.9191         1.90558 
        5.29359         30.6016         1.89119 
        5.30933         30.4363         1.87692 
        5.32504         30.2587         1.86283 
        5.34073         29.9504          1.8489 
        5.35646         29.7634         1.83508 
        5.37218         29.4913          1.8214 
        5.38789         29.3268         1.80788 
        5.40357         29.0564         1.79451 
        5.41929         28.8924         1.78125 
        5.43502         28.6532         1.76812 
         5.4507            28.5         1.75516 
        5.46639         28.2659         1.74232 
        5.48212         28.0298         1.72958 
        5.49786         27.8102         1.71696 
        5.51353         27.6492         1.70452 
        5.52921         27.3947         1.69219 
        5.54495         27.2361         1.67995 
        5.56066         27.0038         1.66784 
        5.57637         26.8137         1.65586 
        5.59207         26.6176           1.644 
        5.60778         26.4654         1.63225 
        5.62346         26.2296         1.62064 
        5.63916         26.0822         1.60913 
        5.65487         25.8535         1.59772 
         5.6706         25.6924         1.58641 
        5.68633         25.3746          1.5752 
        5.70203         25.2549         1.56413 
        5.71773         25.1472         1.55317 
        5.73344         24.9404          1.5423 
        5.74916          24.791         1.53153 
        5.76486         24.5993         1.52087 
        5.78054         24.4222         1.51034 
        5.79626         24.2036         1.49987 
          5.812         24.0368         1.48949 
         5.8277         23.8295         1.47924 
        5.84339          23.694         1.46909 
        5.85911         23.5483         1.45901 
        5.87484          23.371         1.44903 
        5.89053         23.1897         1.43916 
        5.90623         23.0285         1.42938 
        5.92195         22.8975         1.41967 
        5.93767         22.7229         1.41006 
        5.95336           22.54         1.40056 
        5.96905         22.3981         1.39114 
        5.98476         22.2088          1.3818 
        6.00048         22.0371         1.37254 
        6.01617         21.9072         1.36338 
        6.03185         21.7544         1.35431 
        6.04756         21.6424          1.3453 
        6.06331          21.442         1.33636 
        6.07903         21.3105         1.32751 
        6.09473         21.1758         1.31876 
        6.11044         20.9723         1.31007 
        6.12616         20.8811         1.30147 
        6.14186         20.7263         1.29295 
        6.15755         20.5835         1.28451 
        6.17326         20.4341         1.27613 
        6.18898         20.3239         1.26783 
        6.20467         20.1248         1.25961 
        6.22036         20.0254         1.25147 
         6.2361         19.8761         1.24338 
         6.2518         19.7255         1.23538 
        6.26748         19.6042         1.22746 
        6.28319         19.4874         1.21959 
        6.29893         19.3641         1.21178 
        6.31463         19.2057         1.20405 
        6.33033         19.0633         1.19639 
        6.34604         18.9617          1.1888 
        6.36177         18.8009         1.18126 
        6.37747         18.7034          1.1738 
