# k  (h/Mpc)    Pcb(k)  (Mpc/h)^3    Pcb_linear(k) (Mpc/h)^3   ShotnoiseSubtracted = true
      0.0200456         24925.3         25341.3 
      0.0350414         20419.4         19870.1 
      0.0492313           15188         15743.3 
      0.0637834         11988.8         12801.8 
      0.0800726         9054.47         9670.52 
       0.096163         7750.55         7606.48 
       0.111083         6595.43         6438.87 
       0.126058         5261.44         5352.54 
       0.142273         4552.73         4355.56 
       0.158546         3858.77         3710.43 
        0.17375         3525.59          3228.2 
       0.188953         3333.16         2775.27 
       0.204907         2873.72         2402.39 
       0.220756         2620.08         2123.33 
        0.23588         2359.32         1885.98 
         0.2514         2152.68         1671.13 
       0.267535         2061.74         1490.36 
       0.283568         1862.55         1339.22 
       0.299022         1779.14         1209.35 
       0.314451         1848.92         1096.47 
       0.330372         1675.44         996.957 
       0.346141         1544.11         910.106 
       0.361624         1477.47          834.13 
       0.377134         1425.16         766.937 
       0.392932         1354.05         706.388 
       0.408854         1303.51         651.794 
       0.424564         1279.98         603.438 
       0.440253         1205.57         560.155 
       0.455999         1153.08          521.02 
       0.471626         1154.68         485.822 
        0.48727         1103.26         453.834 
       0.502856         1075.21         424.847 
       0.518488         1032.39         398.318 
       0.534347         998.549         373.708 
       0.550082         961.323         351.349 
       0.565732         939.567          330.93 
       0.581496         914.891         312.006 
       0.597222         906.287         294.602 
       0.612804          881.33         278.672 
       0.628434         847.186         263.882 
       0.644267          826.77         249.998 
       0.660051         814.266         237.154 
       0.675724         802.798         225.296 
       0.691403         769.213         214.248 
       0.707174         752.663         203.885 
       0.722871         745.347         194.253 
        0.73838         723.731         185.351 
       0.754018         714.797         176.941 
       0.769845         699.221         168.964 
        0.78569         681.474         161.472 
       0.801365         663.014         154.509 
       0.817031         653.296         147.962 
       0.832809         639.999         141.754 
       0.848511         624.793          135.93 
       0.864097         618.327         130.475 
       0.879701         619.989         125.315 
       0.895507         597.153         120.374 
       0.911279         592.489          115.71 
        0.92691          578.26         111.334 
       0.942635         568.805          107.16 
       0.958396         559.592         103.192 
       0.974128         547.349         99.4336 
       0.989692          535.87         95.9002 
        1.00528         528.195         92.5341 
        1.02113         517.047         89.2777 
        1.03692         508.495         86.1908 
        1.05264         502.413         83.2648 
        1.06832         492.193         80.4798 
        1.08405         486.491         77.8155 
        1.09979         475.433         75.2707 
        1.11537         465.306         72.8655 
        1.13105         459.991         70.5515 
        1.14679         451.595         68.3295 
        1.16256         446.801         66.1993 
        1.17828         439.497         64.1672 
        1.19395         430.228         62.2277 
         1.2097         421.788         60.3587 
        1.22537         416.625         58.5759 
          1.241         408.261         56.8707 
        1.25666         402.179         55.2293 
        1.27241         399.041         53.6453 
        1.28819         389.989         52.1209 
        1.30392         385.935         50.6605 
        1.31957         378.374         49.2626 
        1.33529         373.991         47.9126 
        1.35108         373.236         46.6079 
        1.36674         363.659         45.3614 
         1.3824         354.837         44.1617 
        1.39811          352.78         43.0016 
        1.41389         347.835         41.8788 
        1.42964         341.229         40.7981 
        1.44531         335.212          39.761 
        1.46101         326.761         38.7578 
        1.47667         326.115         37.7923 
        1.49229         322.506         36.8624 
        1.50793         314.802         35.9628 
        1.52367         309.072         35.0875 
        1.53953         305.315         34.2356 
        1.55526         299.417         33.4189 
        1.57092         295.237         32.6322 
        1.58662         291.489          31.869 
        1.60235         286.894         31.1289 
        1.61809         283.023         30.4119 
        1.63369         278.655          29.724 
        1.64941          275.13         29.0525 
        1.66519         271.222         28.3993 
        1.68085         265.474         27.7709 
        1.69652         262.033         27.1614 
        1.71228         258.297         26.5668 
        1.72806         254.888         25.9895 
        1.74368         251.852         25.4352 
        1.75933         248.878          24.896 
        1.77505         244.201           24.37 
        1.79081         240.797         23.8582 
         1.8065         238.937         23.3634 
        1.82218         233.052         22.8831 
        1.83797         230.793          22.413 
        1.85367         226.602         21.9587 
        1.86928         222.864         21.5198 
        1.88497         220.369         21.0905 
        1.90073          218.24         20.6714 
        1.91647         214.828          20.264 
        1.93218         211.305         19.8685 
        1.94787         207.138         19.4842 
        1.96363         206.133         19.1085 
        1.97935         201.812         18.7435 
        1.99499         199.981         18.3901 
        2.01064         195.103         18.0453 
         2.0264         194.301         17.7073 
        2.04216         190.621          17.378 
        2.05781         188.562         17.0593 
        2.07353         186.994         16.7474 
        2.08928         184.487         16.4426 
        2.10499         181.475         16.1462 
        2.12065         179.042         15.8581 
        2.13633         176.458         15.5767 
        2.15211         174.179         15.3004 
        2.16785         172.018         15.0315 
        2.18349         169.368         14.7708 
        2.19916         168.407         14.5157 
        2.21489         165.308         14.2659 
        2.23063         163.658         14.0217 
         2.2463         161.629         13.7844 
        2.26194         158.795         13.5531 
        2.27765           157.3          13.326 
        2.29341         155.019         13.1035 
        2.30914         152.866         12.8866 
        2.32486          151.37         12.6746 
        2.34061         148.605         12.4671 
        2.35635         146.757         12.2645 
        2.37203         145.793          12.067 
        2.38768         143.362         11.8744 
        2.40339         141.551         11.6852 
        2.41914         139.867         11.4997 
        2.43483         138.547         11.3189 
         2.4505         136.418         11.1423 
        2.46622         134.631         10.9688 
        2.48195         133.325         10.7991 
        2.49759         131.181         10.6338 
        2.51328         129.432         10.4716 
        2.52906         128.209         10.3117 
        2.54479         126.455         10.1558 
        2.56049         125.233         10.0034 
        2.57618         123.511         9.85425 
        2.59189         122.465         9.70793 
        2.60758         121.599         9.56482 
        2.62325         119.344         9.42476 
        2.63898         117.331         9.28703 
        2.65468         116.351         9.15233 
        2.67044          115.36         9.01974 
        2.68618         113.506         8.89008 
        2.70184         112.649         8.76348 
        2.71755         110.811         8.63904 
        2.73329         109.736         8.51682 
        2.74897         108.046         8.39737 
        2.76462          107.13         8.28048 
        2.78034          105.64         8.16533 
        2.79607         104.828         8.05225 
        2.81179         103.427         7.94144 
        2.82749         102.143         7.83284 
        2.84321         101.063         7.72615 
        2.85893          100.01         7.62149 
        2.87462         98.3476         7.51894 
        2.89033         97.7158         7.41818 
        2.90605         96.4324         7.31919 
        2.92176         94.8273         7.22205 
        2.93747         94.3613         7.12673 
        2.95318         93.4168          7.0331 
        2.96891         92.2086         6.94112 
        2.98456         91.1776         6.85119 
        3.00023         90.2378         6.76272 
        3.01596         89.2156         6.67554 
        3.03164         88.4452         6.59015 
        3.04738         87.3579           6.506 
         3.0631         86.3901         6.42335 
        3.07883         85.5568         6.34213 
        3.09456         84.5358         6.26233 
        3.11026           83.88         6.18403 
        3.12596         82.4635         6.10707 
        3.14163         81.8638          6.0316 
        3.15734           80.85         5.95723 
        3.17308         79.8808         5.88394 
        3.18879         79.3386         5.81208 
        3.20447         78.1735         5.74152 
         3.2202         77.2617         5.67192 
         3.2359         76.8536         5.60359 
        3.25157         76.2582         5.53656 
        3.26729         75.0671         5.47041 
        3.28304         74.5319         5.40522 
        3.29877         73.5848         5.34118 
        3.31446         73.0193         5.27831 
        3.33014         72.4019         5.21651 
        3.34585         71.5617         5.15561 
        3.36158         70.6955         5.09559 
        3.37727         70.0333         5.03671 
        3.39294         69.4202         4.97881 
        3.40867         68.4234         4.92162 
        3.42439         67.6537         4.86536 
        3.44008         67.0862         4.81008 
        3.45578         66.8195         4.75563 
        3.47153          65.865         4.70189 
        3.48724         65.2185         4.64908 
        3.50292         64.7738         4.59721 
        3.51859         63.9139         4.54615 
        3.53431         63.3546         4.49571 
        3.55007         62.7725         4.44591 
        3.56577         62.1514         4.39706 
        3.58146         61.4103         4.34897 
        3.59719         60.8818         4.30148 
        3.61292         60.4184         4.25472 
        3.62859         59.7263         4.20883 
        3.64429         59.3101         4.16353 
        3.66003         58.5976         4.11876 
        3.67578          57.907         4.07466 
        3.69146         57.4444         4.03138 
        3.70712         56.6981          3.9888 
        3.72284         56.4267         3.94668 
        3.73853         55.7256         3.90524 
        3.75422         55.4046         3.86438 
        3.76993         54.7596         3.82407 
        3.78564         54.3494         3.78435 
        3.80137         53.7474         3.74513 
        3.81707           53.13         3.70655 
        3.83279         52.7757         3.66848 
        3.84853         52.3366         3.63088 
        3.86424         51.7862         3.59388 
        3.87992          51.247         3.55746 
        3.89561         50.8936         3.52153 
        3.91134         50.4549         3.48603 
        3.92704         49.9084         3.45106 
        3.94273         49.2796         3.41661 
        3.95845         48.9423         3.38256 
        3.97418         48.5078         3.34897 
        3.98988         48.1862         3.31588 
        4.00554         47.5482         3.28332 
        4.02125         47.1699         3.25111 
        4.03698         46.8443         3.21929 
        4.05268         46.3319         3.18796 
        4.06839          45.896         3.15702 
         4.0841         45.5233         3.12651 
        4.09983          45.026         3.09635 
        4.11555         44.7201         3.06661 
        4.13124         44.3109         3.03733 
        4.14693         43.9812         3.00842 
        4.16266         43.6522         2.97981 
        4.17839         43.1418         2.95159 
        4.19408         42.8127         2.92381 
        4.20977         42.3432         2.89636 
        4.22551         41.9506         2.86921 
        4.24123         41.6517         2.84243 
        4.25691         41.1728         2.81606 
        4.27259         40.9367         2.79002 
        4.28831         40.5409         2.76426 
        4.30404         40.2491          2.7388 
        4.31974         39.8733         2.71371 
        4.33543         39.4237         2.68896 
        4.35116         39.1813         2.66445 
        4.36688         38.8116         2.64025 
        4.38255         38.4686         2.61645 
        4.39825         38.1154         2.59289 
        4.41398         37.8531         2.56957 
         4.4297         37.4226         2.54656 
        4.44541          37.224         2.52384 
        4.46111         36.8383         2.50142 
        4.47683          36.583         2.47925 
        4.49251          36.309         2.45739 
        4.50819         36.0459          2.4358 
         4.5239         35.7365         2.41444 
        4.53962         35.2876         2.39331 
        4.55535         35.0437         2.37243 
        4.57106         34.7966         2.35182 
        4.58678         34.5127         2.33145 
         4.6025         34.1944         2.31132 
        4.61821          33.904         2.29143 
        4.63391         33.6067          2.2718 
         4.6496         33.4035          2.2524 
        4.66532          33.072         2.23321 
        4.68103         32.8333         2.21424 
        4.69673         32.4262         2.19552 
        4.71241         32.3411         2.17703 
        4.72811          32.073         2.15872 
        4.74384         31.7267          2.1406 
        4.75955         31.4624         2.12271 
        4.77525         31.2134         2.10504 
        4.79096         31.0052         2.08755 
        4.80669         30.7182         2.07024 
         4.8224          30.478         2.05316 
        4.83809         30.2586         2.03628 
        4.85379         29.9246         2.01959 
         4.8695         29.7576         2.00306 
        4.88521         29.4796         1.98673 
        4.90093         29.2315         1.97058 
        4.91663         29.0255         1.95462 
        4.93234         28.7716         1.93882 
        4.94807         28.5813         1.92319 
        4.96377         28.3982         1.90776 
        4.97943         28.0746         1.89253 
        4.99514          27.845         1.87743 
        5.01086         27.6662         1.86248 
        5.02654          27.422         1.84773 
        5.04227          27.236         1.83309 
          5.058         27.0493         1.81861 
        5.07371         26.8256         1.80431 
        5.08942         26.5869         1.79017 
        5.10513         26.4053         1.77617 
        5.12084         26.2434         1.76232 
        5.13656         26.0127         1.74862 
        5.15225         25.7961         1.73509 
        5.16796         25.5962         1.72168 
        5.18369         25.3336         1.70839 
         5.1994         25.2114         1.69528 
        5.21509         24.9677         1.68231 
        5.23079          24.787         1.66946 
        5.24649         24.5917         1.65675 
        5.26217          24.393         1.64419 
        5.27788         24.2147         1.63174 
        5.29359         24.0694         1.61942 
        5.30933         23.8149          1.6072 
        5.32504         23.6951         1.59513 
        5.34073         23.5145          1.5832 
        5.35646         23.3407         1.57137 
        5.37218          23.185         1.55966 
        5.38789         22.9332         1.54808 
        5.40357         22.8213         1.53663 
        5.41929         22.6577         1.52528 
        5.43502         22.4501         1.51404 
         5.4507         22.3038         1.50293 
        5.46639         22.1188         1.49194 
        5.48212         21.9486         1.48104 
        5.49786         21.7892         1.47022 
        5.51353         21.6232         1.45957 
        5.52921          21.481         1.44902 
        5.54495         21.3273         1.43854 
        5.56066         21.2235         1.42817 
        5.57637         20.9862          1.4179 
        5.59207         20.8941         1.40775 
        5.60778          20.679         1.39769 
        5.62346         20.5517         1.38775 
        5.63916         20.3628         1.37789 
        5.65487         20.2497         1.36812 
         5.6706         20.1136         1.35844 
        5.68633         19.9625         1.34884 
        5.70203         19.7961         1.33936 
        5.71773         19.6316         1.32997 
        5.73344          19.511         1.32066 
        5.74916         19.4177         1.31144 
        5.76486         19.2657         1.30232 
        5.78054         19.0757         1.29329 
        5.79626          18.983         1.28433 
          5.812         18.8516         1.27544 
         5.8277         18.6709         1.26667 
        5.84339         18.5353         1.25797 
        5.85911          18.406         1.24934 
        5.87484         18.3104          1.2408 
        5.89053         18.1387         1.23235 
        5.90623         18.0127         1.22397 
        5.92195         17.9067         1.21566 
        5.93767         17.7567         1.20743 
        5.95336         17.6344         1.19929 
        5.96905         17.5289         1.19123 
        5.98476         17.3892         1.18323 
        6.00048         17.2921          1.1753 
        6.01617         17.1038         1.16745 
        6.03185         17.0438         1.15969 
        6.04756         16.9559         1.15198 
        6.06331         16.7758         1.14432 
        6.07903         16.6923         1.13675 
        6.09473         16.5778         1.12925 
        6.11044         16.4394         1.12181 
        6.12616         16.3412         1.11444 
        6.14186         16.2214         1.10715 
        6.15755         16.1393         1.09992 
        6.17326         15.9943         1.09275 
        6.18898         15.9136         1.08564 
        6.20467         15.7771          1.0786 
        6.22036         15.6626         1.07163 
         6.2361         15.5729          1.0647 
         6.2518         15.4902         1.05785 
        6.26748         15.3589         1.05107 
        6.28319         15.2684         1.04433 
        6.29893         15.1464         1.03764 
        6.31463         15.0346         1.03102 
        6.33033          14.925         1.02447 
        6.34604         14.8626         1.01796 
        6.36177         14.7506         1.01151 
        6.37747         14.6439         1.00512 
