# k  (h/Mpc)    Pcb(k)  (Mpc/h)^3    Pcb_linear(k) (Mpc/h)^3   ShotnoiseSubtracted = true
      0.0200456         29455.2         30266.4 
      0.0350414           22304           23732 
      0.0492313         18029.5           18803 
      0.0637834         15437.9         15289.8 
      0.0800726         11724.1           11550 
       0.096163         8563.14         9084.82 
       0.111083         7236.35         7690.28 
       0.126058         6420.24         6392.82 
       0.142273         5461.28         5202.07 
       0.158546         5109.04         4431.56 
        0.17375         4177.36         3855.61 
       0.188953         4057.93         3314.65 
       0.204907         3802.61          2869.3 
       0.220756         3356.93         2536.01 
        0.23588         3055.77         2252.52 
         0.2514         2705.83         1995.92 
       0.267535         2718.86         1780.02 
       0.283568         2465.29          1599.5 
       0.299022         2365.37         1444.39 
       0.314451          2248.6         1309.57 
       0.330372         2047.36         1190.72 
       0.346141         2052.36         1086.99 
       0.361624         1972.42         996.246 
       0.377134         1857.63         915.993 
       0.392932         1777.11         843.677 
       0.408854         1740.09         778.472 
       0.424564         1606.01         720.718 
       0.440253         1575.26         669.023 
       0.455999         1566.44         622.282 
       0.471626         1495.04         580.243 
        0.48727         1449.04         542.038 
       0.502856         1376.35         507.418 
       0.518488         1401.36         475.732 
       0.534347          1302.5         446.339 
       0.550082         1298.34         419.634 
       0.565732         1272.47         395.248 
       0.581496         1223.52         372.645 
       0.597222         1184.52         351.859 
       0.612804         1170.22         332.833 
       0.628434         1134.59         315.168 
       0.644267          1109.9         298.585 
       0.660051         1091.21         283.246 
       0.675724         1078.37         269.083 
       0.691403         1051.15         255.887 
       0.707174         1013.21          243.51 
       0.722871         984.595         232.007 
        0.73838         975.699         221.374 
       0.754018         952.205         211.331 
       0.769845         939.768         201.802 
        0.78569         926.335         192.854 
       0.801365         899.083         184.538 
       0.817031         885.499         176.719 
       0.832809          868.43         169.304 
       0.848511         852.998         162.349 
       0.864097         828.364         155.833 
       0.879701         811.755          149.67 
       0.895507         803.883         143.769 
       0.911279         797.251         138.199 
        0.92691          771.78         132.972 
       0.942635         751.786         127.987 
       0.958396         747.369         123.248 
       0.974128         732.036         118.759 
       0.989692         719.816         114.539 
        1.00528         698.515         110.518 
        1.02113         698.175         106.629 
        1.03692          681.29         102.942 
        1.05264         671.137         99.4475 
        1.06832         659.239         96.1213 
        1.08405         643.906         92.9391 
        1.09979         631.676         89.8998 
        1.11537         622.513         87.0271 
        1.13105          613.54         84.2634 
        1.14679         601.012         81.6095 
        1.16256         592.797         79.0653 
        1.17828         584.063         76.6383 
        1.19395         574.188         74.3218 
         1.2097         559.022         72.0896 
        1.22537         551.031         69.9602 
          1.241         541.607         67.9236 
        1.25666         540.117         65.9633 
        1.27241          526.35         64.0714 
        1.28819         513.317         62.2508 
        1.30392         509.945         60.5065 
        1.31957         496.576         58.8369 
        1.33529         489.222         57.2245 
        1.35108         481.236         55.6663 
        1.36674         472.378         54.1775 
         1.3824         467.666         52.7446 
        1.39811         455.562          51.359 
        1.41389         451.483          50.018 
        1.42964          446.15         48.7273 
        1.44531         439.343         47.4886 
        1.46101         432.231         46.2905 
        1.47667         421.703         45.1373 
        1.49229         417.667         44.0267 
        1.50793         406.727         42.9523 
        1.52367         403.856         41.9069 
        1.53953          392.15         40.8894 
        1.55526         392.215         39.9139 
        1.57092         386.424         38.9743 
        1.58662         378.683         38.0629 
        1.60235         374.266         37.1789 
        1.61809         369.478         36.3226 
        1.63369         360.381         35.5009 
        1.64941         354.597         34.6989 
        1.66519         349.526         33.9188 
        1.68085         346.932         33.1683 
        1.69652         342.987         32.4403 
        1.71228         335.156         31.7301 
        1.72806         333.077         31.0406 
        1.74368         325.941         30.3786 
        1.75933          320.46         29.7347 
        1.77505         315.914         29.1064 
        1.79081         311.913         28.4952 
         1.8065         307.276         27.9042 
        1.82218         304.473         27.3305 
        1.83797         298.738          26.769 
        1.85367             293         26.2265 
        1.86928         289.718         25.7022 
        1.88497         285.781         25.1895 
        1.90073         281.511         24.6889 
        1.91647         277.506         24.2024 
        1.93218         273.134           23.73 
        1.94787         270.187          23.271 
        1.96363         266.599         22.8223 
        1.97935         261.628         22.3863 
        1.99499         257.775         21.9643 
        2.01064         254.857         21.5525 
         2.0264         250.767         21.1487 
        2.04216         247.825         20.7555 
        2.05781         245.057         20.3748 
        2.07353         240.214         20.0023 
        2.08928         238.045         19.6382 
        2.10499         234.191         19.2843 
        2.12065         230.084         18.9401 
        2.13633         228.013         18.6041 
        2.15211         225.088          18.274 
        2.16785          223.07         17.9529 
        2.18349         219.663         17.6415 
        2.19916          215.78         17.3369 
        2.21489         214.442         17.0385 
        2.23063         211.354         16.7469 
         2.2463         208.159         16.4634 
        2.26194         205.058         16.1872 
        2.27765         201.843          15.916 
        2.29341          199.97         15.6502 
        2.30914         197.193         15.3911 
        2.32486         194.803          15.138 
        2.34061         191.685         14.8902 
        2.35635         190.867         14.6481 
        2.37203         187.865         14.4123 
        2.38768         184.489         14.1822 
        2.40339         182.938         13.9562 
        2.41914         180.263         13.7347 
        2.43483         178.745         13.5187 
         2.4505         175.352         13.3078 
        2.46622         174.994         13.1007 
        2.48195         171.997         12.8979 
        2.49759         169.672         12.7005 
        2.51328         167.143         12.5068 
        2.52906         165.327         12.3158 
        2.54479         163.758         12.1296 
        2.56049         161.892         11.9476 
        2.57618         160.085         11.7695 
        2.59189         158.146         11.5947 
        2.60758         155.768         11.4238 
        2.62325         154.215         11.2565 
        2.63898         151.901          11.092 
        2.65468         151.198         10.9311 
        2.67044         149.354         10.7727 
        2.68618         147.626         10.6179 
        2.70184         145.784         10.4667 
        2.71755         144.325         10.3181 
        2.73329         141.877         10.1721 
        2.74897         140.718         10.0294 
        2.76462         139.158         9.88981 
        2.78034         137.716         9.75228 
        2.79607          135.74         9.61723 
        2.81179         134.294         9.48488 
        2.82749         133.267         9.35518 
        2.84321         131.065         9.22775 
        2.85893         129.507         9.10275 
        2.87462         128.126         8.98026 
        2.89033         126.693         8.85993 
        2.90605         126.699         8.74169 
        2.92176         123.895         8.62568 
        2.93747         122.988         8.51183 
        2.95318         121.611         8.40001 
        2.96891          120.33         8.29015 
        2.98456         118.921         8.18274 
        3.00023         117.743         8.07708 
        3.01596          116.37         7.97295 
        3.03164         115.366         7.87096 
        3.04738         113.824         7.77046 
         3.0631         112.436         7.67175 
        3.07883         111.899         7.57474 
        3.09456         110.318         7.47943 
        3.11026         109.093         7.38591 
        3.12596         108.012           7.294 
        3.14163         106.455         7.20386 
        3.15734         106.086         7.11504 
        3.17308         104.762          7.0275 
        3.18879         103.211         6.94167 
        3.20447         102.562          6.8574 
         3.2202         101.256         6.77427 
         3.2359           100.6         6.69267 
        3.25157         99.5152          6.6126 
        3.26729         98.5766          6.5336 
        3.28304         97.2192         6.45574 
        3.29877         96.4765         6.37925 
        3.31446         95.3298         6.30417 
        3.33014         94.9914         6.23036 
        3.34585         93.4703         6.15762 
        3.36158         92.5616         6.08593 
        3.37727         91.5463          6.0156 
        3.39294          90.615         5.94646 
        3.40867         89.8319         5.87815 
        3.42439         88.8199         5.81095 
        3.44008         88.1764         5.74493 
        3.45578         87.1754         5.67989 
        3.47153         86.1904         5.61572 
        3.48724         85.3343         5.55265 
        3.50292          84.632         5.49069 
        3.51859         83.5059         5.42971 
        3.53431         82.7601         5.36946 
        3.55007         82.1458         5.30999 
        3.56577         81.1816         5.25164 
        3.58146         80.6271          5.1942 
        3.59719         79.6972         5.13749 
        3.61292         78.7914         5.08164 
        3.62859         78.3939         5.02683 
        3.64429          77.549         4.97273 
        3.66003         76.7109         4.91925 
        3.67578         75.7066         4.86659 
        3.69146          75.305         4.81489 
        3.70712          74.539         4.76403 
        3.72284         73.8314         4.71373 
        3.73853          73.308         4.66423 
        3.75422         72.5721         4.61543 
        3.76993         71.7458         4.56729 
        3.78564         70.7382         4.51985 
        3.80137         70.3135         4.47301 
        3.81707         69.6977         4.42692 
        3.83279         69.0513         4.38146 
        3.84853         68.7744         4.33655 
        3.86424         67.8923         4.29237 
        3.87992         67.2073         4.24886 
        3.89561         66.6708         4.20595 
        3.91134         65.9266         4.16355 
        3.92704         65.5024         4.12179 
        3.94273          65.066         4.08063 
        3.95845         64.3833         4.03997 
        3.97418         63.6047         3.99985 
        3.98988         63.2115         3.96033 
        4.00554         62.4721         3.92145 
        4.02125         61.9658         3.88298 
        4.03698         61.5368         3.84496 
        4.05268          60.746         3.80755 
        4.06839         60.4832          3.7706 
         4.0841         59.7708         3.73415 
        4.09983         59.4135         3.69814 
        4.11555         58.7706         3.66261 
        4.13124         58.1495         3.62765 
        4.14693         57.7609         3.59311 
        4.16266         57.2833         3.55895 
        4.17839         56.8404         3.52524 
        4.19408         56.2173         3.49206 
        4.20977         55.8623         3.45928 
        4.22551          55.161         3.42685 
        4.24123          54.648         3.39486 
        4.25691         54.1275         3.36337 
        4.27259         53.8758         3.33227 
        4.28831         53.3999          3.3015 
        4.30404         52.8135         3.27109 
        4.31974           52.52         3.24113 
        4.33543         51.9727         3.21156 
        4.35116         51.5233         3.18229 
        4.36688         51.0521         3.15339 
        4.38255         50.6546         3.12496 
        4.39825         50.2367         3.09682 
        4.41398         49.9041         3.06897 
         4.4297         49.4507          3.0415 
        4.44541         48.9762         3.01436 
        4.46111         48.4837         2.98757 
        4.47683          48.238          2.9611 
        4.49251         47.8397         2.93499 
        4.50819         47.3032         2.90921 
         4.5239          47.031          2.8837 
        4.53962          46.545         2.85846 
        4.55535         46.2315         2.83351 
        4.57106         45.8169          2.8089 
        4.58678         45.3784         2.78457 
         4.6025         45.0391         2.76053 
        4.61821         44.6666         2.73677 
        4.63391         44.2592         2.71333 
         4.6496         43.8286         2.69017 
        4.66532         43.5242         2.66724 
        4.68103         43.2718         2.64459 
        4.69673         42.8547         2.62222 
        4.71241         42.5171         2.60014 
        4.72811          42.123         2.57827 
        4.74384         41.7873         2.55663 
        4.75955         41.4894         2.53526 
        4.77525         41.2405         2.51416 
        4.79096         40.8396         2.49327 
        4.80669         40.4853          2.4726 
         4.8224          40.204         2.45219 
        4.83809         39.9126         2.43204 
        4.85379         39.5419          2.4121 
         4.8695         39.2672         2.39236 
        4.88521         38.8652         2.37286 
        4.90093         38.5682         2.35357 
        4.91663         38.1855         2.33451 
        4.93234           37.97         2.31564 
        4.94807         37.7531         2.29697 
        4.96377         37.3461         2.27854 
        4.97943         37.1365         2.26035 
        4.99514         36.7223         2.24231 
        5.01086          36.529         2.22445 
        5.02654         36.2692         2.20684 
        5.04227         35.9473         2.18936 
          5.058         35.5769         2.17206 
        5.07371         35.4352         2.15499 
        5.08942         35.0815         2.13809 
        5.10513         34.8571         2.12138 
        5.12084         34.5163         2.10483 
        5.13656         34.3776         2.08847 
        5.15225          34.038         2.07231 
        5.16796         33.8294         2.05629 
        5.18369         33.5418         2.04042 
         5.1994         33.2617         2.02476 
        5.21509         33.0329         2.00927 
        5.23079         32.7625         1.99392 
        5.24649         32.5396         1.97875 
        5.26217         32.2564         1.96374 
        5.27788         32.0666         1.94887 
        5.29359         31.7503         1.93415 
        5.30933         31.5558         1.91957 
        5.32504         31.3563         1.90515 
        5.34073         31.0519          1.8909 
        5.35646         30.8355         1.87677 
        5.37218         30.5567         1.86278 
        5.38789         30.3963         1.84895 
        5.40357         30.1216         1.83528 
        5.41929         29.9481         1.82172 
        5.43502         29.6997         1.80829 
         5.4507          29.506         1.79503 
        5.46639         29.2552         1.78191 
        5.48212         29.0613         1.76888 
        5.49786         28.8271         1.75597 
        5.51353         28.6437         1.74325 
        5.52921         28.4044         1.73064 
        5.54495         28.2469         1.71812 
        5.56066         27.9715         1.70574 
        5.57637         27.8089         1.69348 
        5.59207         27.6014         1.68135 
        5.60778          27.419         1.66934 
        5.62346         27.1955         1.65746 
        5.63916         27.0105         1.64568 
        5.65487         26.7976         1.63402 
         5.6706          26.663         1.62245 
        5.68633         26.2996         1.61099 
        5.70203         26.1864         1.59967 
        5.71773         26.0595         1.58845 
        5.73344         25.8861         1.57734 
        5.74916         25.6847         1.56632 
        5.76486         25.5066         1.55543 
        5.78054         25.3156         1.54465 
        5.79626         25.0965         1.53394 
          5.812         24.9327         1.52333 
         5.8277         24.7574         1.51285 
        5.84339         24.5531         1.50246 
        5.85911         24.4253         1.49216 
        5.87484         24.2147         1.48195 
        5.89053         24.0996         1.47186 
        5.90623         23.8947         1.46186 
        5.92195         23.7603         1.45193 
        5.93767         23.5897          1.4421 
        5.95336         23.3784         1.43238 
        5.96905         23.2246         1.42275 
        5.98476         23.0287         1.41319 
        6.00048         22.8593         1.40372 
        6.01617           22.73         1.39435 
        6.03185         22.5625         1.38508 
        6.04756         22.4556         1.37587 
        6.06331         22.2541         1.36672 
        6.07903         22.1234         1.35767 
        6.09473         21.9402         1.34872 
        6.11044         21.7503         1.33984 
        6.12616         21.6819         1.33104 
        6.14186         21.5002         1.32232 
        6.15755         21.3405         1.31369 
        6.17326            21.2         1.30513 
        6.18898         21.0698         1.29663 
        6.20467         20.8681         1.28823 
        6.22036         20.7739         1.27991 
         6.2361          20.624         1.27163 
         6.2518         20.4733         1.26344 
        6.26748         20.3349         1.25534 
        6.28319         20.2205         1.24729 
        6.29893         20.0963         1.23931 
        6.31463         19.9311         1.23141 
        6.33033         19.7833         1.22357 
        6.34604         19.6402          1.2158 
        6.36177         19.5165          1.2081 
        6.37747         19.3797         1.20047 
