# k  (h/Mpc)    Pcb(k)  (Mpc/h)^3    Pcb_linear(k) (Mpc/h)^3   ShotnoiseSubtracted = true
      0.0200456         2599.71         2628.13 
      0.0350414         2090.14         2060.72 
      0.0492313         1628.76         1632.73 
      0.0637834         1304.58         1327.67 
      0.0800726         989.682         1002.92 
       0.096163         801.656         788.864 
       0.111083         682.299         667.772 
       0.126058         552.383         555.109 
       0.142273         452.813         451.713 
       0.158546         389.453         384.806 
        0.17375         343.735         334.795 
       0.188953         298.094         287.821 
       0.204907         250.351          249.15 
       0.220756         227.692         220.209 
        0.23588         202.576         195.594 
         0.2514         180.348         173.312 
       0.267535         166.276         154.564 
       0.283568         147.475          138.89 
       0.299022          136.46         125.421 
       0.314451         128.875         113.714 
       0.330372         114.041         103.394 
       0.346141         104.915         94.3866 
       0.361624         97.2336         86.5072 
       0.377134         88.9519         79.5386 
       0.392932         86.0889         73.2591 
       0.408854         79.0633         67.5972 
       0.424564         75.6104         62.5822 
       0.440253         69.0151         58.0934 
       0.455999         63.3372         54.0347 
       0.471626         60.0987         50.3843 
        0.48727         58.5104         47.0669 
       0.502856         54.4376         44.0607 
       0.518488          51.335         41.3093 
       0.534347         48.4519          38.757 
       0.550082         46.6398         36.4382 
       0.565732         44.9736         34.3206 
       0.581496         42.1564          32.358 
       0.597222          40.008          30.553 
       0.612804         38.3628         28.9009 
       0.628434         37.5862         27.3671 
       0.644267         35.5959         25.9271 
       0.660051          33.888         24.5951 
       0.675724         32.4444         23.3653 
       0.691403         31.8369         22.2195 
       0.707174         30.6608         21.1448 
       0.722871         29.6035         20.1459 
        0.73838         28.1093         19.2226 
       0.754018          26.757         18.3505 
       0.769845         26.1378         17.5231 
        0.78569         25.2688         16.7462 
       0.801365         24.4172          16.024 
       0.817031         23.5533          15.345 
       0.832809           22.93         14.7012 
       0.848511          22.211         14.0973 
       0.864097         21.5371         13.5315 
       0.879701         21.1828         12.9963 
       0.895507         20.3819         12.4839 
       0.911279         19.6029         12.0003 
        0.92691         19.2444         11.5463 
       0.942635          18.812         11.1135 
       0.958396         18.1827          10.702 
       0.974128         17.7321         10.3122 
       0.989692         17.0123         9.94575 
        1.00528         16.9005         9.59666 
        1.02113         16.3389         9.25894 
        1.03692         15.9785          8.9388 
        1.05264         15.6471         8.63534 
        1.06832         15.3151         8.34652 
        1.08405         14.8973          8.0702 
        1.09979         14.5591         7.80628 
        1.11537         14.1955         7.55684 
        1.13105         13.9566         7.31685 
        1.14679         13.6398         7.08641 
        1.16256         13.3633         6.86549 
        1.17828         13.0943         6.65475 
        1.19395         12.8707          6.4536 
         1.2097         12.4713         6.25977 
        1.22537         12.2804         6.07487 
          1.241          11.996         5.89802 
        1.25666         11.9185          5.7278 
        1.27241         11.6594         5.56352 
        1.28819         11.2108         5.40543 
        1.30392         11.1966         5.25397 
        1.31957         10.9297           5.109 
        1.33529         10.7851         4.96899 
        1.35108         10.5725         4.83368 
        1.36674         10.3294          4.7044 
         1.3824          10.215         4.57998 
        1.39811         10.0284         4.45967 
        1.41389          9.8107         4.34322 
        1.42964         9.69999         4.23115 
        1.44531         9.51723         4.12359 
        1.46101         9.39676         4.01955 
        1.47667         9.22131         3.91942 
        1.49229         9.01352         3.82298 
        1.50793         8.91896         3.72968 
        1.52367         8.77925         3.63891 
        1.53953         8.61365         3.55056 
        1.55526         8.53249         3.46585 
        1.57092         8.40027         3.38427 
        1.58662          8.2623         3.30512 
        1.60235         8.14981         3.22836 
        1.61809         8.05265           3.154 
        1.63369         7.88823         3.08266 
        1.64941         7.78354         3.01301 
        1.66519          7.6739         2.94527 
        1.68085         7.55439         2.88011 
        1.69652         7.49315         2.81689 
        1.71228         7.40954         2.75522 
        1.72806         7.25001         2.69536 
        1.74368          7.1998         2.63787 
        1.75933         7.09907         2.58195 
        1.77505         6.95893          2.5274 
        1.79081         6.91927         2.47433 
         1.8065         6.85468         2.42301 
        1.82218          6.7391         2.37319 
        1.83797         6.62668         2.32444 
        1.85367         6.54456         2.27733 
        1.86928         6.50231         2.23181 
        1.88497         6.38742         2.18729 
        1.90073         6.31675         2.14382 
        1.91647         6.21098         2.10157 
        1.93218          6.1622         2.06055 
        1.94787           6.076         2.02069 
        1.96363         6.01385         1.98173 
        1.97935         5.97617         1.94388 
        1.99499         5.89027         1.90723 
        2.01064          5.8235         1.87147 
         2.0264         5.75232         1.83641 
        2.04216         5.70615         1.80227 
        2.05781         5.62826         1.76921 
        2.07353         5.57655         1.73686 
        2.08928         5.46477         1.70525 
        2.10499         5.43278         1.67452 
        2.12065         5.44126         1.64463 
        2.13633         5.34716         1.61545 
        2.15211         5.26472         1.58679 
        2.16785         5.20413         1.55891 
        2.18349          5.1823         1.53187 
        2.19916         5.12042         1.50542 
        2.21489         5.05826          1.4795 
        2.23063         5.00801         1.45418 
         2.2463         4.95139         1.42957 
        2.26194         4.89663         1.40559 
        2.27765         4.83139         1.38203 
        2.29341         4.77887         1.35896 
        2.30914         4.74974         1.33646 
        2.32486          4.7015         1.31448 
        2.34061          4.6609         1.29296 
        2.35635         4.61685         1.27194 
        2.37203         4.58858         1.25147 
        2.38768         4.55059         1.23148 
        2.40339         4.48398         1.21186 
        2.41914         4.44236         1.19263 
        2.43483         4.39126         1.17388 
         2.4505         4.36393         1.15556 
        2.46622         4.31849         1.13757 
        2.48195         4.29834         1.11997 
        2.49759         4.23461         1.10283 
        2.51328          4.2026           1.086 
        2.52906         4.16166         1.06942 
        2.54479         4.12666         1.05325 
        2.56049         4.09215         1.03745 
        2.57618         4.05747         1.02198 
        2.59189         4.05829          1.0068 
        2.60758         4.00026        0.991962 
        2.62325         3.93939        0.977437 
        2.63898         3.92125        0.963152 
        2.65468         3.88008        0.949183 
        2.67044         3.86946        0.935432 
        2.68618         3.83524        0.921985 
        2.70184         3.79728        0.908856 
        2.71755         3.75201         0.89595 
        2.73329         3.72967        0.883275 
        2.74897         3.69418        0.870887 
        2.76462         3.66022        0.858764 
        2.78034         3.64474        0.846822 
        2.79607         3.60208        0.835094 
        2.81179         3.57051        0.823602 
        2.82749         3.53802         0.81234 
        2.84321         3.52146        0.801275 
        2.85893         3.48304         0.79042 
        2.87462         3.46546        0.779785 
        2.89033         3.44663        0.769336 
        2.90605         3.41381        0.759069 
        2.92176         3.37742        0.748995 
        2.93747         3.35234        0.739109 
        2.95318         3.32625        0.729399 
        2.96891         3.31104         0.71986 
        2.98456         3.28696        0.710533 
        3.00023         3.26516        0.701358 
        3.01596         3.22907        0.692317 
        3.03164         3.20027        0.683461 
        3.04738         3.18847        0.674734 
         3.0631         3.16405        0.666162 
        3.07883         3.13996        0.657739 
        3.09456          3.1045        0.649463 
        3.11026         3.09035        0.641342 
        3.12596         3.07212        0.633361 
        3.14163         3.04859        0.625534 
        3.15734           3.024        0.617821 
        3.17308          3.0064         0.61022 
        3.18879         2.98554        0.602767 
        3.20447         2.95528         0.59545 
         3.2202         2.94826        0.588231 
         3.2359         2.92606        0.581145 
        3.25157         2.89968        0.574193 
        3.26729         2.87577        0.567333 
        3.28304         2.85784        0.560573 
        3.29877         2.83647        0.553931 
        3.31446         2.82091        0.547411 
        3.33014         2.79887        0.541002 
        3.34585         2.78598        0.534685 
        3.36158         2.75898         0.52846 
        3.37727          2.7527        0.522354 
        3.39294         2.72409         0.51635 
        3.40867         2.71515        0.510418 
        3.42439         2.68779        0.504583 
        3.44008          2.6696        0.498851 
        3.45578         2.65453        0.493203 
        3.47153         2.64027        0.487631 
        3.48724         2.62407        0.482154 
        3.50292         2.60146        0.476774 
        3.51859         2.59166        0.471479 
        3.53431         2.56405        0.466247 
        3.55007         2.56534        0.461083 
        3.56577         2.53688        0.456017 
        3.58146         2.52462        0.451029 
        3.59719         2.51095        0.446104 
        3.61292         2.49137        0.441255 
        3.62859         2.47931        0.436496 
        3.64429         2.45865        0.431798 
        3.66003         2.44495        0.427154 
        3.67578         2.43232        0.422581 
        3.69146         2.40763        0.418092 
        3.70712          2.3946        0.413676 
        3.72284         2.38197        0.409308 
        3.73853         2.37437         0.40501 
        3.75422         2.35348        0.400772 
        3.76993         2.33656        0.396592 
        3.78564         2.32336        0.392473 
        3.80137         2.30659        0.388405 
        3.81707          2.2945        0.384404 
        3.83279         2.28639        0.380456 
        3.84853         2.26694        0.376556 
        3.86424          2.2494         0.37272 
        3.87992         2.23655        0.368942 
        3.89561         2.22227        0.365216 
        3.91134         2.21535        0.361535 
        3.92704          2.1961        0.357908 
        3.94273         2.18112        0.354334 
        3.95845         2.16847        0.350803 
        3.97418         2.16045        0.347319 
        3.98988         2.14901        0.343888 
        4.00554         2.13446        0.340512 
        4.02125         2.11581        0.337171 
        4.03698         2.10787         0.33387 
        4.05268         2.08934        0.330621 
        4.06839          2.0787        0.327413 
         4.0841         2.06398        0.324248 
        4.09983         2.04875        0.321121 
        4.11555         2.03818        0.318036 
        4.13124         2.02247           0.315 
        4.14693         2.01157        0.312001 
        4.16266         2.00159        0.309035 
        4.17839         1.98892        0.306108 
        4.19408         1.97373        0.303226 
        4.20977         1.96159         0.30038 
        4.22551         1.95526        0.297564 
        4.24123         1.93889        0.294786 
        4.25691         1.92832        0.292052 
        4.27259          1.9115        0.289352 
        4.28831         1.90943         0.28668 
        4.30404         1.89217        0.284039 
        4.31974         1.87968        0.281438 
        4.33543         1.86677         0.27887 
        4.35116         1.86296        0.276328 
        4.36688         1.84817        0.273819 
        4.38255         1.83917        0.271351 
        4.39825         1.82809        0.268907 
        4.41398         1.81721        0.266489 
         4.4297         1.80527        0.264103 
        4.44541         1.79195        0.261746 
        4.46111         1.78811        0.259421 
        4.47683         1.77743        0.257121 
        4.49251         1.76482        0.254854 
        4.50819         1.75645        0.252616 
         4.5239         1.74545        0.250401 
        4.53962         1.73637        0.248209 
        4.55535         1.72709        0.246043 
        4.57106         1.71888        0.243906 
        4.58678         1.70856        0.241793 
         4.6025         1.69834        0.239706 
        4.61821         1.69436        0.237643 
        4.63391          1.6813        0.235607 
         4.6496         1.67317        0.233596 
        4.66532         1.66608        0.231605 
        4.68103         1.65261        0.229638 
        4.69673         1.64894        0.227696 
        4.71241         1.64144        0.225778 
        4.72811         1.63492        0.223879 
        4.74384         1.62322           0.222 
        4.75955         1.62004        0.220145 
        4.77525         1.60692        0.218312 
        4.79096         1.59596        0.216498 
        4.80669         1.59382        0.214704 
         4.8224         1.58739        0.212932 
        4.83809         1.57964        0.211182 
        4.85379         1.57152         0.20945 
         4.8695         1.55978        0.207736 
        4.88521         1.55637        0.206043 
        4.90093          1.5507        0.204368 
        4.91663         1.53895        0.202713 
        4.93234         1.53773        0.201074 
        4.94807         1.52442        0.199453 
        4.96377         1.52122        0.197853 
        4.97943          1.5138        0.196273 
        4.99514         1.50664        0.194707 
        5.01086         1.49738        0.193156 
        5.02654         1.49237        0.191627 
        5.04227         1.48713        0.190109 
          5.058         1.48157        0.188607 
        5.07371         1.47648        0.187124 
        5.08942         1.46856        0.185657 
        5.10513         1.46134        0.184206 
        5.12084         1.45252        0.182769 
        5.13656         1.44898        0.181348 
        5.15225         1.44147        0.179945 
        5.16796         1.43641        0.178554 
        5.18369         1.43227        0.177176 
         5.1994         1.42684        0.175816 
        5.21509          1.4173        0.174471 
        5.23079         1.41431        0.173139 
        5.24649         1.40719        0.171821 
        5.26217         1.40354        0.170518 
        5.27788          1.3948        0.169227 
        5.29359          1.3878        0.167949 
        5.30933          1.3848        0.166682 
        5.32504         1.37793         0.16543 
        5.34073         1.37246        0.164193 
        5.35646         1.36646        0.162966 
        5.37218         1.36155        0.161751 
        5.38789         1.35707         0.16055 
        5.40357         1.35158        0.159363 
        5.41929         1.35009        0.158186 
        5.43502         1.33981         0.15702 
         5.4507         1.33625        0.155869 
        5.46639          1.3325        0.154729 
        5.48212         1.32637        0.153597 
        5.49786         1.32056        0.152476 
        5.51353          1.3169        0.151371 
        5.52921         1.31012        0.150277 
        5.54495         1.30773         0.14919 
        5.56066         1.30298        0.148114 
        5.57637         1.29794         0.14705 
        5.59207         1.29198        0.145997 
        5.60778         1.28838        0.144954 
        5.62346         1.28183        0.143922 
        5.63916         1.28077          0.1429 
        5.65487         1.27181        0.141887 
         5.6706         1.27079        0.140883 
        5.68633         1.26246        0.139887 
        5.70203          1.2643        0.138904 
        5.71773         1.25536         0.13793 
        5.73344         1.25274        0.136965 
        5.74916         1.24901        0.136009 
        5.76486         1.24161        0.135062 
        5.78054         1.24007        0.134127 
        5.79626         1.23572        0.133197 
          5.812         1.23105        0.132276 
         5.8277         1.22574        0.131365 
        5.84339         1.22512        0.130464 
        5.85911         1.21824        0.129569 
        5.87484         1.21457        0.128682 
        5.89053         1.20862        0.127806 
        5.90623          1.2065        0.126938 
        5.92195         1.20375        0.126076 
        5.93767         1.19831        0.125222 
        5.95336         1.19149        0.124378 
        5.96905         1.18884        0.123542 
        5.98476         1.18586        0.122712 
        6.00048         1.18283         0.12189 
        6.01617         1.17724        0.121076 
        6.03185         1.17426        0.120271 
        6.04756         1.17157        0.119471 
        6.06331         1.16834        0.118677 
        6.07903         1.16579        0.117891 
        6.09473         1.16006        0.117114 
        6.11044         1.15608        0.116342 
        6.12616         1.15139        0.115578 
        6.14186         1.14871        0.114822 
        6.15755         1.14443        0.114072 
        6.17326          1.1424        0.113328 
        6.18898         1.13803        0.112591 
        6.20467         1.13466        0.111861 
        6.22036         1.13101        0.111138 
         6.2361         1.12833         0.11042 
         6.2518         1.12722        0.109709 
        6.26748         1.12226        0.109005 
        6.28319         1.11919        0.108306 
        6.29893         1.11417        0.107613 
        6.31463         1.11153        0.106927 
        6.33033         1.10786        0.106247 
        6.34604         1.10438        0.105572 
        6.36177         1.10209        0.104903 
        6.37747         1.09907         0.10424 
