# k  (h/Mpc)    Pcb(k)  (Mpc/h)^3    Pcb_linear(k) (Mpc/h)^3   ShotnoiseSubtracted = true
      0.0200456           13360         13623.6 
      0.0350414         10291.7         10682.3 
      0.0492313         8302.04         8463.68 
      0.0637834         6986.22         6882.31 
      0.0800726         5309.19         5198.93 
       0.096163         3942.87         4089.29 
       0.111083         3289.36         3461.58 
       0.126058         2906.53         2877.56 
       0.142273         2443.83         2341.57 
       0.158546         2177.81         1994.75 
        0.17375            1776          1735.5 
       0.188953            1684            1492 
       0.204907         1573.18         1291.54 
       0.220756         1370.47         1141.52 
        0.23588         1216.98         1013.91 
         0.2514         1056.94         898.408 
       0.267535          1039.7         801.227 
       0.283568         946.776         719.972 
       0.299022         889.566         650.155 
       0.314451         843.326         589.468 
       0.330372         777.562          535.97 
       0.346141         721.014         489.278 
       0.361624         690.194         448.433 
       0.377134         642.147          412.31 
       0.392932         617.873         379.759 
       0.408854         595.339         350.408 
       0.424564         561.562         324.412 
       0.440253         548.425         301.143 
       0.455999         519.096         280.103 
       0.471626         488.361         261.181 
        0.48727         474.185         243.984 
       0.502856         460.341           228.4 
       0.518488         454.853         214.138 
       0.534347         425.431         200.908 
       0.550082         406.229         188.887 
       0.565732         405.404          177.91 
       0.581496         381.444         167.736 
       0.597222         375.942          158.38 
       0.612804         363.989         149.816 
       0.628434         350.093         141.865 
       0.644267         339.875           134.4 
       0.660051         331.745         127.496 
       0.675724         328.052         121.121 
       0.691403         317.785         115.181 
       0.707174         305.845          109.61 
       0.722871         302.396         104.432 
        0.73838         297.437         99.6457 
       0.754018         288.687         95.1248 
       0.769845         279.134         90.8359 
        0.78569         278.712         86.8082 
       0.801365         269.142         83.0648 
       0.817031         261.352         79.5452 
       0.832809         258.019         76.2076 
       0.848511         251.343         73.0769 
       0.864097         247.596         70.1442 
       0.879701         243.392           67.37 
       0.895507         237.713         64.7137 
       0.911279         230.414         62.2066 
        0.92691         229.363         59.8536 
       0.942635         224.311         57.6098 
       0.958396         221.997         55.4767 
       0.974128          216.99         53.4561 
       0.989692         211.757         51.5565 
        1.00528         208.954         49.7469 
        1.02113         207.461         47.9962 
        1.03692         201.568         46.3367 
        1.05264         197.688         44.7636 
        1.06832         194.474         43.2664 
        1.08405         190.539          41.834 
        1.09979         189.499          40.466 
        1.11537         184.204         39.1729 
        1.13105         181.262         37.9289 
        1.14679           181.2         36.7343 
        1.16256         177.424         35.5891 
        1.17828         173.718         34.4967 
        1.19395          171.52          33.454 
         1.2097         170.213         32.4492 
        1.22537         166.169         31.4907 
          1.241         164.671          30.574 
        1.25666          160.93         29.6916 
        1.27241         158.754           28.84 
        1.28819         156.539         28.0205 
        1.30392          154.61         27.2354 
        1.31957         152.803         26.4839 
        1.33529         148.938         25.7581 
        1.35108         147.854         25.0567 
        1.36674         146.539         24.3865 
         1.3824         143.326         23.7416 
        1.39811         143.222         23.1179 
        1.41389         139.907         22.5143 
        1.42964         137.045         21.9333 
        1.44531          134.77         21.3757 
        1.46101         133.472         20.8364 
        1.47667         131.184         20.3174 
        1.49229         129.582         19.8174 
        1.50793         128.623         19.3338 
        1.52367         126.925         18.8633 
        1.53953         124.212         18.4053 
        1.55526         122.694         17.9662 
        1.57092         121.227         17.5433 
        1.58662         119.203          17.133 
        1.60235         118.302         16.7351 
        1.61809         116.244         16.3496 
        1.63369         114.983         15.9798 
        1.64941         113.713         15.6188 
        1.66519         111.583         15.2676 
        1.68085         110.867         14.9298 
        1.69652         107.904         14.6021 
        1.71228          108.13         14.2824 
        1.72806         106.301         13.9721 
        1.74368         105.076         13.6741 
        1.75933         103.663         13.3843 
        1.77505         101.925         13.1014 
        1.79081           100.9         12.8263 
         1.8065         99.4848         12.5603 
        1.82218         97.6384         12.3021 
        1.83797         96.6752         12.0494 
        1.85367         95.3081         11.8051 
        1.86928         94.6672         11.5692 
        1.88497         92.4889         11.3384 
        1.90073         92.2105         11.1131 
        1.91647         90.5625          10.894 
        1.93218         89.5605         10.6814 
        1.94787         88.7023         10.4748 
        1.96363         87.2454         10.2728 
        1.97935          85.997         10.0766 
        1.99499         85.2348         9.88663 
        2.01064          84.193         9.70128 
         2.0264         82.8865         9.51953 
        2.04216          81.932         9.34253 
        2.05781         80.8718         9.17116 
        2.07353         79.4306         9.00348 
        2.08928         78.6964         8.83963 
        2.10499          77.675          8.6803 
        2.12065         77.1115         8.52539 
        2.13633         76.0431         8.37412 
        2.15211         75.0102         8.22556 
        2.16785         73.9168         8.08102 
        2.18349         73.0529         7.94087 
        2.19916         72.2764         7.80374 
        2.21489         71.4345         7.66941 
        2.23063         70.4052         7.53815 
         2.2463         69.7706         7.41056 
        2.26194         69.1421         7.28624 
        2.27765         68.0593         7.16414 
        2.29341         67.1107         7.04453 
        2.30914         66.1599         6.92789 
        2.32486         65.4771         6.81396 
        2.34061         64.6744         6.70241 
        2.35635         64.1372         6.59346 
        2.37203         62.8727         6.48731 
        2.38768         62.4921         6.38372 
        2.40339         61.6025         6.28202 
        2.41914         60.9414          6.1823 
        2.43483         60.7124          6.0851 
         2.4505         59.6111         5.99015 
        2.46622         58.9749         5.89691 
        2.48195         58.1661         5.80564 
        2.49759         57.3347          5.7168 
        2.51328         56.9002         5.62959 
        2.52906         56.3125         5.54364 
        2.54479         55.6212         5.45981 
        2.56049         54.8458         5.37788 
        2.57618         54.2831          5.2977 
        2.59189         53.6649         5.21904 
        2.60758         53.1595          5.1421 
        2.62325         52.5023         5.06681 
        2.63898         51.9741         4.99276 
        2.65468         51.4348         4.92035 
        2.67044         50.7638         4.84906 
        2.68618         50.4209         4.77936 
        2.70184         49.6192          4.7113 
        2.71755         49.3979          4.6444 
        2.73329         48.4723         4.57869 
        2.74897         47.8323         4.51448 
        2.76462         47.5869         4.45163 
        2.78034         47.0348         4.38973 
        2.79607         46.3493         4.32894 
        2.81179         45.9216         4.26936 
        2.82749         45.2843         4.21098 
        2.84321         44.8846         4.15363 
        2.85893         44.3776         4.09736 
        2.87462         43.7834         4.04223 
        2.89033         43.4576         3.98806 
        2.90605         42.8077         3.93484 
        2.92176         42.4903         3.88262 
        2.93747         41.9015         3.83137 
        2.95318         41.4596         3.78104 
        2.96891         40.7925         3.73159 
        2.98456         40.7551         3.68324 
        3.00023         40.1512         3.63568 
        3.01596         39.8358         3.58881 
        3.03164         39.2407          3.5429 
        3.04738         39.0525         3.49766 
         3.0631         38.4804         3.45323 
        3.07883         38.1309         3.40957 
        3.09456          37.719         3.36667 
        3.11026         37.2835         3.32457 
        3.12596         36.9961          3.2832 
        3.14163         36.4867         3.24262 
        3.15734         35.9322         3.20264 
        3.17308         35.8451         3.16324 
        3.18879         35.4834         3.12461 
        3.20447         34.9968         3.08668 
         3.2202         34.5666         3.04926 
         3.2359         34.2735         3.01252 
        3.25157         33.8252         2.97649 
        3.26729         33.5489         2.94093 
        3.28304         33.1645         2.90588 
        3.29877          32.895         2.87145 
        3.31446         32.5631         2.83765 
        3.33014         32.2293         2.80443 
        3.34585         31.8679         2.77169 
        3.36158         31.5852         2.73942 
        3.37727         31.2057         2.70776 
        3.39294         30.9587         2.67664 
        3.40867         30.5888         2.64589 
        3.42439         30.3585         2.61564 
        3.44008         30.1713         2.58593 
        3.45578         29.6311         2.55665 
        3.47153         29.4234         2.52776 
        3.48724         29.1561         2.49937 
        3.50292         28.8438         2.47149 
        3.51859         28.5292         2.44404 
        3.53431         28.3281         2.41692 
        3.55007          28.033         2.39015 
        3.56577         27.7246         2.36389 
        3.58146         27.4726         2.33803 
        3.59719         27.1517          2.3125 
        3.61292         26.9588         2.28736 
        3.62859         26.6577         2.26269 
        3.64429          26.337         2.23834 
        3.66003         26.1394         2.21427 
        3.67578         25.8957         2.19056 
        3.69146         25.7157         2.16729 
        3.70712         25.4229          2.1444 
        3.72284         25.2309         2.12176 
        3.73853         24.9439         2.09948 
        3.75422         24.7289         2.07751 
        3.76993         24.5526         2.05584 
        3.78564          24.317         2.03449 
        3.80137         24.0931          2.0134 
        3.81707         23.8315         1.99266 
        3.83279         23.6494         1.97219 
        3.84853         23.3632         1.95198 
        3.86424         23.1229         1.93209 
        3.87992         22.8771         1.91251 
        3.89561         22.6865          1.8932 
        3.91134         22.5246         1.87411 
        3.92704         22.3337         1.85531 
        3.94273         22.0606         1.83679 
        3.95845         21.8766         1.81848 
        3.97418         21.7414         1.80042 
        3.98988         21.4172         1.78263 
        4.00554         21.2759         1.76513 
        4.02125         21.1381         1.74782 
        4.03698         20.8535         1.73071 
        4.05268          20.707         1.71386 
        4.06839         20.5247         1.69723 
         4.0841         20.3612         1.68083 
        4.09983         20.2265         1.66462 
        4.11555         20.0215         1.64863 
        4.13124         19.7892         1.63289 
        4.14693         19.5956         1.61734 
        4.16266         19.4247         1.60196 
        4.17839         19.2572         1.58679 
        4.19408         19.0338         1.57186 
        4.20977         18.9309          1.5571 
        4.22551         18.7247          1.5425 
        4.24123         18.5838         1.52811 
        4.25691         18.4248         1.51393 
        4.27259         18.2727         1.49993 
        4.28831         18.1134         1.48608 
        4.30404         17.9186         1.47239 
        4.31974         17.7944         1.45891 
        4.33543         17.6455          1.4456 
        4.35116         17.5355         1.43242 
        4.36688         17.3231         1.41942 
        4.38255         17.1961         1.40662 
        4.39825         17.0659         1.39395 
        4.41398         16.8751         1.38142 
         4.4297         16.7531         1.36905 
        4.44541          16.618         1.35683 
        4.46111         16.4686         1.34478 
        4.47683         16.3392         1.33286 
        4.49251         16.1823         1.32111 
        4.50819         16.0215          1.3095 
         4.5239          15.927         1.29802 
        4.53962         15.7868         1.28666 
        4.55535         15.6547         1.27543 
        4.57106         15.4776         1.26435 
        4.58678         15.4056          1.2534 
         4.6025         15.2578         1.24258 
        4.61821         15.0896         1.23189 
        4.63391         15.0276         1.22133 
         4.6496         14.8677         1.21091 
        4.66532          14.741         1.20059 
        4.68103         14.6251         1.19039 
        4.69673         14.5378         1.18032 
        4.71241         14.4043         1.17038 
        4.72811          14.259         1.16054 
        4.74384         14.1702          1.1508 
        4.75955         14.0341         1.14118 
        4.77525         13.9365         1.13168 
        4.79096         13.8019         1.12228 
        4.80669         13.7451         1.11298 
         4.8224         13.5949         1.10379 
        4.83809         13.4857         1.09472 
        4.85379         13.3729         1.08574 
         4.8695         13.3027         1.07686 
        4.88521         13.1708         1.06808 
        4.90093         13.0816          1.0594 
        4.91663         12.9734         1.05082 
        4.93234         12.8359         1.04232 
        4.94807         12.7535         1.03392 
        4.96377         12.6437         1.02562 
        4.97943         12.5728         1.01743 
        4.99514         12.4504         1.00931 
        5.01086         12.3604         1.00128 
        5.02654         12.2563        0.993348 
        5.04227         12.1381        0.985481 
          5.058         12.0822        0.977696 
        5.07371         11.9549         0.97001 
        5.08942         11.8889        0.962406 
        5.10513          11.787        0.954882 
        5.12084          11.696        0.947435 
        5.13656         11.6057        0.940069 
        5.15225         11.5108        0.932793 
        5.16796          11.414        0.925583 
        5.18369         11.3357        0.918442 
         5.1994         11.2721         0.91139 
        5.21509         11.1522        0.904418 
        5.23079         11.0678        0.897511 
        5.24649         10.9895        0.890681 
        5.26217          10.924        0.883927 
        5.27788         10.8198        0.877233 
        5.29359         10.7282        0.870608 
        5.30933         10.6423        0.864041 
        5.32504         10.5912        0.857553 
        5.34073          10.514        0.851139 
        5.35646         10.4405        0.844778 
        5.37218         10.3427         0.83848 
        5.38789         10.2808        0.832256 
        5.40357         10.1958        0.826103 
        5.41929         10.1128        0.819999 
        5.43502         10.0586        0.813955 
         5.4507         9.98128        0.807987 
        5.46639         9.90028        0.802077 
        5.48212         9.82812        0.796213 
        5.49786          9.7653        0.790401 
        5.51353         9.68145        0.784675 
        5.52921         9.61271           0.779 
        5.54495         9.55026        0.773365 
        5.56066         9.47024        0.767792 
        5.57637         9.40421        0.762274 
        5.59207         9.33441        0.756815 
        5.60778         9.26831        0.751408 
        5.62346         9.21193        0.746061 
        5.63916         9.13034        0.740761 
        5.65487         9.06174        0.735509 
         5.6706         9.00974        0.730303 
        5.68633         8.94361        0.725145 
        5.70203          8.8703        0.720047 
        5.71773         8.81653        0.714999 
        5.73344         8.75638        0.709997 
        5.74916         8.68251        0.705038 
        5.76486         8.62017        0.700133 
        5.78054         8.57689        0.695282 
        5.79626         8.49339        0.690464 
          5.812         8.44125        0.685687 
         5.8277         8.37288        0.680968 
        5.84339         8.33035        0.676294 
        5.85911         8.27144        0.671655 
        5.87484         8.20753         0.66706 
        5.89053         8.15146        0.662518 
        5.90623         8.09335        0.658015 
        5.92195         8.04836        0.653546 
        5.93767         7.97867        0.649122 
        5.95336         7.94854        0.644746 
        5.96905          7.8787        0.640411 
        5.98476         7.82885        0.636111 
        6.00048         7.75257        0.631848 
        6.01617         7.72953         0.62763 
        6.03185         7.66724        0.623456 
        6.04756         7.61714         0.61931 
        6.06331         7.58313        0.615192 
        6.07903         7.51593        0.611121 
        6.09473         7.47759         0.60709 
        6.11044         7.41911        0.603092 
        6.12616         7.36393        0.599131 
        6.14186         7.31023        0.595209 
        6.15755           7.255        0.591322 
        6.17326         7.21769        0.587467 
        6.18898         7.17092        0.583645 
        6.20467         7.11995        0.579863 
        6.22036         7.05799        0.576115 
         6.2361         7.02496         0.57239 
         6.2518         6.98497        0.568705 
        6.26748         6.92838        0.565059 
        6.28319         6.89421        0.561436 
        6.29893         6.84542        0.557841 
        6.31463         6.80066        0.554284 
        6.33033         6.75715        0.550759 
        6.34604         6.71221        0.547262 
        6.36177         6.66539        0.543792 
        6.37747         6.62349        0.540359 
