# k  (h/Mpc)    Pcb(k)  (Mpc/h)^3    Pcb_linear(k) (Mpc/h)^3   ShotnoiseSubtracted = true
      0.0200456         3031.98         3074.16 
      0.0350414         2377.02         2410.46 
      0.0492313         1903.74         1909.82 
      0.0637834         1571.65         1552.99 
      0.0800726         1195.22         1173.14 
       0.096163         911.153         922.746 
       0.111083         761.684         781.103 
       0.126058         655.945         649.319 
       0.142273         543.194         528.375 
       0.158546         463.926         450.114 
        0.17375         390.656         391.614 
       0.188953         350.606         336.669 
       0.204907          319.49         291.435 
       0.220756          274.84         257.582 
        0.23588         243.389         228.789 
         0.2514         213.411         202.725 
       0.267535         196.433         180.796 
       0.283568         178.676         162.461 
       0.299022          164.21         146.707 
       0.314451         147.298         133.013 
       0.330372          136.45         120.941 
       0.346141         123.978         110.405 
       0.361624         116.182         101.189 
       0.377134         109.435         93.0375 
       0.392932         97.7103         85.6923 
       0.408854         94.0618         79.0695 
       0.424564         89.5027         73.2034 
       0.440253         82.6778         67.9527 
       0.455999          78.088         63.2052 
       0.471626         72.6499         58.9353 
        0.48727         69.9462         55.0549 
       0.502856         65.9325         51.5384 
       0.518488         63.2464         48.3201 
       0.534347         60.6959         45.3347 
       0.550082         55.7598         42.6223 
       0.565732         52.5154         40.1453 
       0.581496         51.1546         37.8496 
       0.597222         49.4891         35.7383 
       0.612804         46.4082         33.8059 
       0.628434         44.9611         32.0117 
       0.644267         43.7903         30.3273 
       0.660051         41.7762         28.7693 
       0.675724         39.7354         27.3308 
       0.691403         38.4892         25.9905 
       0.707174          37.372         24.7334 
       0.722871         35.8596          23.565 
        0.73838           34.75          22.485 
       0.754018         33.2865         21.4649 
       0.769845         32.3589         20.4971 
        0.78569         31.3965         19.5882 
       0.801365         30.2433         18.7435 
       0.817031         29.5421         17.9493 
       0.832809         28.9649         17.1962 
       0.848511         27.2569         16.4898 
       0.864097         26.7809          15.828 
       0.879701         26.1829          15.202 
       0.895507         25.5548         14.6026 
       0.911279         24.7842         14.0369 
        0.92691         24.1574         13.5059 
       0.942635         23.2532         12.9996 
       0.958396         22.8309         12.5183 
       0.974128         22.1444         12.0623 
       0.989692         21.9596         11.6337 
        1.00528         21.3906         11.2254 
        1.02113          20.547         10.8303 
        1.03692         20.1396         10.4558 
        1.05264         19.7225         10.1009 
        1.06832         19.3031         9.76305 
        1.08405         18.7794         9.43983 
        1.09979         18.3946         9.13113 
        1.11537         18.0514         8.83935 
        1.13105         17.7247         8.55863 
        1.14679         17.4669         8.28908 
        1.16256         16.8553         8.03066 
        1.17828         16.8306         7.78416 
        1.19395         16.2167         7.54887 
         1.2097         16.0359         7.32215 
        1.22537         15.6302         7.10587 
          1.241         15.4118         6.89901 
        1.25666          15.055          6.6999 
        1.27241         14.7325         6.50774 
        1.28819           14.46         6.32282 
        1.30392          14.341         6.14564 
        1.31957         14.0947         5.97607 
        1.33529         13.8506          5.8123 
        1.35108          13.502         5.65403 
        1.36674         13.4027         5.50281 
         1.3824         13.0571         5.35728 
        1.39811         12.8629         5.21654 
        1.41389         12.7053         5.08033 
        1.42964         12.5485         4.94924 
        1.44531         12.3655         4.82342 
        1.46101         12.0537         4.70172 
        1.47667         11.9096          4.5846 
        1.49229         11.7643         4.47179 
        1.50793         11.5511         4.36267 
        1.52367         11.3779         4.25649 
        1.53953         11.2222         4.15314 
        1.55526         11.0599         4.05406 
        1.57092         10.9386         3.95863 
        1.58662         10.7678         3.86605 
        1.60235         10.6057         3.77626 
        1.61809         10.4716         3.68929 
        1.63369         10.3066         3.60583 
        1.64941         10.1659         3.52437 
        1.66519         10.0704         3.44513 
        1.68085         9.90462          3.3689 
        1.69652         9.75122         3.29496 
        1.71228         9.62037         3.22283 
        1.72806         9.56707          3.1528 
        1.74368         9.38533         3.08556 
        1.75933         9.29489         3.02015 
        1.77505         9.17718         2.95634 
        1.79081         8.99939         2.89426 
         1.8065         8.95622         2.83423 
        1.82218         8.79716         2.77596 
        1.83797         8.74456         2.71893 
        1.85367         8.59066         2.66382 
        1.86928         8.58551         2.61058 
        1.88497         8.38382          2.5585 
        1.90073          8.3178         2.50765 
        1.91647         8.26564         2.45824 
        1.93218         8.16329         2.41026 
        1.94787         8.03475         2.36363 
        1.96363         7.97672         2.31806 
        1.97935         7.85167         2.27378 
        1.99499         7.74007         2.23091 
        2.01064         7.67196         2.18909 
         2.0264          7.5867         2.14808 
        2.04216         7.52323         2.10814 
        2.05781         7.42052         2.06947 
        2.07353         7.35824         2.03163 
        2.08928         7.30277         1.99466 
        2.10499         7.24118         1.95871 
        2.12065         7.13323         1.92375 
        2.13633         7.09039         1.88962 
        2.15211         6.97721         1.85609 
        2.16785         6.90492         1.82348 
        2.18349         6.84967         1.79185 
        2.19916         6.77872         1.76091 
        2.21489         6.69965          1.7306 
        2.23063         6.64203         1.70098 
         2.2463         6.56261         1.67219 
        2.26194         6.48059         1.64414 
        2.27765         6.46357         1.61658 
        2.29341         6.37074         1.58959 
        2.30914         6.31792         1.56327 
        2.32486         6.22632         1.53757 
        2.34061         6.20449          1.5124 
        2.35635         6.14989         1.48781 
        2.37203         6.08858         1.46386 
        2.38768         6.01849         1.44048 
        2.40339         5.96908         1.41753 
        2.41914         5.87805         1.39503 
        2.43483         5.87451          1.3731 
         2.4505         5.79507         1.35167 
        2.46622         5.75763         1.33063 
        2.48195         5.68405         1.31004 
        2.49759         5.67233         1.28999 
        2.51328          5.5996         1.27031 
        2.52906          5.5802         1.25092 
        2.54479         5.49861           1.232 
        2.56049         5.46872         1.21352 
        2.57618          5.4062         1.19542 
        2.59189         5.35983         1.17767 
        2.60758         5.32531         1.16031 
        2.62325          5.2675         1.14332 
        2.63898         5.20716         1.12661 
        2.65468         5.17353         1.11027 
        2.67044         5.12606         1.09419 
        2.68618         5.10446         1.07846 
        2.70184         5.03813          1.0631 
        2.71755         5.00208         1.04801 
        2.73329         4.97268         1.03318 
        2.74897         4.94933         1.01869 
        2.76462         4.90077         1.00451 
        2.78034         4.83247         0.99054 
        2.79607         4.80672        0.976822 
        2.81179         4.78094         0.96338 
        2.82749         4.71382        0.950206 
        2.84321         4.70577        0.937264 
        2.85893         4.66653        0.924566 
        2.87462         4.62622        0.912126 
        2.89033         4.58339        0.899903 
        2.90605         4.54705        0.887894 
        2.92176          4.5007        0.876111 
        2.93747         4.47632        0.864547 
        2.95318         4.44459        0.853189 
        2.96891         4.41746        0.842031 
        2.98456          4.3759        0.831121 
        3.00023         4.33024        0.820389 
        3.01596         4.30974        0.809813 
        3.03164         4.28541        0.799454 
        3.04738         4.24387        0.789246 
         3.0631         4.21689         0.77922 
        3.07883         4.19132        0.769367 
        3.09456         4.15136        0.759687 
        3.11026         4.12888        0.750187 
        3.12596         4.08706        0.740852 
        3.14163         4.05042        0.731697 
        3.15734         4.02082        0.722675 
        3.17308         4.00455        0.713783 
        3.18879         3.97206        0.705066 
        3.20447          3.9515        0.696507 
         3.2202         3.90618        0.688063 
         3.2359          3.8944        0.679775 
        3.25157         3.85468        0.671642 
        3.26729         3.82659        0.663619 
        3.28304         3.80464         0.65571 
        3.29877         3.78727        0.647941 
        3.31446         3.74298        0.640315 
        3.33014         3.73243        0.632818 
        3.34585          3.7031        0.625429 
        3.36158         3.68624        0.618148 
        3.37727          3.6495        0.611005 
        3.39294         3.63221        0.603982 
        3.40867         3.59491        0.597044 
        3.42439         3.57354        0.590219 
        3.44008         3.54729        0.583513 
        3.45578         3.53018        0.576907 
        3.47153         3.50259        0.570389 
        3.48724         3.48394        0.563983 
        3.50292         3.46757         0.55769 
        3.51859         3.43195        0.551496 
        3.53431         3.40751        0.545377 
        3.55007          3.4007        0.539336 
        3.56577           3.373         0.53341 
        3.58146         3.35579        0.527575 
        3.59719         3.32735        0.521815 
        3.61292         3.30876        0.516142 
        3.62859         3.27654        0.510576 
        3.64429         3.25859         0.50508 
        3.66003         3.24707        0.499649 
        3.67578         3.22235        0.494299 
        3.69146         3.19571        0.489048 
        3.70712         3.17862        0.483883 
        3.72284         3.15629        0.478773 
        3.73853         3.14018        0.473746 
        3.75422         3.11799         0.46879 
        3.76993         3.09099          0.4639 
        3.78564         3.07974        0.459081 
        3.80137         3.05961        0.454323 
        3.81707         3.03348        0.449643 
        3.83279         3.02174        0.445025 
        3.84853         3.00499        0.440464 
        3.86424          2.9793        0.435976 
        3.87992         2.96768        0.431557 
        3.89561         2.93332        0.427199 
        3.91134         2.93459        0.422892 
        3.92704         2.90906         0.41865 
        3.94273         2.88749         0.41447 
        3.95845         2.87868         0.41034 
        3.97418          2.8488        0.406265 
        3.98988         2.83127        0.402251 
        4.00554         2.80876        0.398302 
        4.02125         2.79414        0.394394 
        4.03698         2.77701        0.390533 
        4.05268         2.76205        0.386733 
        4.06839          2.7421         0.38298 
         4.0841          2.7251        0.379278 
        4.09983         2.70193         0.37562 
        4.11555         2.69129        0.372012 
        4.13124         2.67407         0.36846 
        4.14693         2.65104        0.364953 
        4.16266         2.63954        0.361482 
        4.17839         2.62525        0.358059 
        4.19408         2.60103        0.354688 
        4.20977         2.58476        0.351359 
        4.22551         2.56898        0.348065 
        4.24123          2.5552        0.344816 
        4.25691         2.54141        0.341618 
        4.27259         2.51907        0.338459 
        4.28831          2.5117        0.335334 
        4.30404          2.4924        0.332245 
        4.31974         2.47865        0.329202 
        4.33543         2.46654        0.326198 
        4.35116         2.45025        0.323225 
        4.36688         2.43548         0.32029 
        4.38255         2.41855        0.317403 
        4.39825         2.40723        0.314545 
        4.41398         2.38771        0.311716 
         4.4297            2.38        0.308925 
        4.44541         2.36129        0.306169 
        4.46111         2.34988        0.303448 
        4.47683         2.33337        0.300759 
        4.49251         2.32135        0.298107 
        4.50819         2.30618        0.295488 
         4.5239         2.29623        0.292897 
        4.53962          2.2849        0.290334 
        4.55535         2.26814          0.2878 
        4.57106         2.25973          0.2853 
        4.58678         2.24549        0.282829 
         4.6025         2.23077        0.280387 
        4.61821         2.21596        0.277974 
        4.63391         2.20679        0.275593 
         4.6496         2.19495         0.27324 
        4.66532         2.17946        0.270912 
        4.68103         2.17198        0.268611 
        4.69673         2.15811        0.266339 
        4.71241         2.14318        0.264096 
        4.72811         2.13378        0.261875 
        4.74384         2.12568        0.259677 
        4.75955         2.11172        0.257507 
        4.77525         2.10211        0.255363 
        4.79096         2.08947        0.253241 
        4.80669         2.08362        0.251142 
         4.8224         2.06601         0.24907 
        4.83809         2.06018        0.247022 
        4.85379         2.04485        0.244997 
         4.8695         2.03396        0.242992 
        4.88521         2.02243        0.241011 
        4.90093          2.0095        0.239052 
        4.91663         2.00102        0.237116 
        4.93234           1.994          0.2352 
        4.94807         1.98075        0.233303 
        4.96377         1.96925        0.231431 
        4.97943         1.96449        0.229584 
        4.99514         1.95106        0.227751 
        5.01086         1.94221        0.225938 
        5.02654         1.93342        0.224149 
        5.04227         1.92541        0.222373 
          5.058         1.91451        0.220617 
        5.07371         1.90614        0.218882 
        5.08942         1.89403        0.217166 
        5.10513         1.88553        0.215469 
        5.12084         1.87928        0.213788 
        5.13656         1.86306        0.212126 
        5.15225         1.85816        0.210484 
        5.16796           1.845        0.208857 
        5.18369         1.83989        0.207246 
         5.1994         1.82958        0.205655 
        5.21509          1.8226        0.204081 
        5.23079         1.81375        0.202523 
        5.24649         1.80578        0.200982 
        5.26217         1.79672        0.199458 
        5.27788         1.78563        0.197947 
        5.29359         1.78829        0.196452 
        5.30933          1.7719         0.19497 
        5.32504         1.76234        0.193506 
        5.34073         1.75695        0.192059 
        5.35646         1.74864        0.190624 
        5.37218         1.74145        0.189203 
        5.38789         1.73366        0.187798 
        5.40357         1.72604         0.18641 
        5.41929          1.7154        0.185032 
        5.43502         1.70973        0.183669 
         5.4507         1.69888        0.182322 
        5.46639         1.69573        0.180988 
        5.48212         1.68726        0.179665 
        5.49786         1.67984        0.178354 
        5.51353         1.67083        0.177062 
        5.52921         1.66323        0.175781 
        5.54495         1.65632        0.174509 
        5.56066         1.64929        0.173252 
        5.57637         1.63971        0.172007 
        5.59207         1.63221        0.170775 
        5.60778         1.62612        0.169555 
        5.62346         1.62266        0.168348 
        5.63916         1.61333        0.167152 
        5.65487         1.60619        0.165967 
         5.6706         1.60126        0.164792 
        5.68633         1.59274        0.163629 
        5.70203           1.586        0.162478 
        5.71773         1.57755        0.161339 
        5.73344         1.56895         0.16021 
        5.74916         1.56429        0.159091 
        5.76486         1.55748        0.157985 
        5.78054         1.55264         0.15689 
        5.79626         1.54661        0.155803 
          5.812         1.54168        0.154725 
         5.8277         1.53038         0.15366 
        5.84339         1.52624        0.152605 
        5.85911         1.52245        0.151559 
        5.87484          1.5139        0.150522 
        5.89053         1.51054        0.149497 
        5.90623         1.50026        0.148481 
        5.92195         1.49761        0.147472 
        5.93767            1.49        0.146474 
        5.95336         1.48412        0.145487 
        5.96905         1.47373        0.144508 
        5.98476         1.47327        0.143538 
        6.00048         1.46514        0.142576 
        6.01617          1.4615        0.141624 
        6.03185         1.45561        0.140683 
        6.04756         1.44879        0.139747 
        6.06331         1.44307        0.138818 
        6.07903         1.43768        0.137899 
        6.09473         1.43091         0.13699 
        6.11044          1.4268        0.136087 
        6.12616         1.42057        0.135194 
        6.14186         1.41595        0.134309 
        6.15755         1.41064        0.133432 
        6.17326         1.40498        0.132562 
        6.18898         1.40197        0.131699 
        6.20467         1.39362        0.130846 
        6.22036         1.38878            0.13 
         6.2361         1.38453         0.12916 
         6.2518          1.3761        0.128328 
        6.26748         1.37377        0.127505 
        6.28319         1.36627        0.126688 
        6.29893         1.36304        0.125877 
        6.31463         1.35731        0.125074 
        6.33033         1.35365        0.124278 
        6.34604         1.34814        0.123489 
        6.36177         1.34292        0.122706 
        6.37747         1.33948        0.121932 
