# k  (h/Mpc)    Pcb(k)  (Mpc/h)^3    Pcb_linear(k) (Mpc/h)^3   ShotnoiseSubtracted = true
      0.0200456         15672.5         16000.4 
      0.0350414         12037.5         12545.9 
      0.0492313         9716.31         9940.25 
      0.0637834          8200.4            8083 
      0.0800726         6230.57         6105.93 
       0.096163         4611.38         4802.71 
       0.111083         3850.92         4065.48 
       0.126058         3409.31         3379.57 
       0.142273         2871.82         2750.08 
       0.158546         2581.65         2342.75 
        0.17375         2100.06         2038.27 
       0.188953          2003.1         1752.29 
       0.204907         1873.39         1516.86 
       0.220756         1637.29         1340.66 
        0.23588          1457.1          1190.8 
         0.2514         1266.01         1055.14 
       0.267535         1254.91         941.009 
       0.283568         1141.25         845.578 
       0.299022          1075.4          763.58 
       0.314451         1023.14         692.307 
       0.330372         942.585         629.475 
       0.346141         885.491         574.638 
       0.361624         847.794         526.667 
       0.377134         788.355         484.241 
       0.392932         760.844         446.011 
       0.408854         736.788         411.541 
       0.424564         690.294         381.009 
       0.440253         676.628          353.68 
       0.455999         644.433          328.97 
       0.471626         611.768         306.746 
        0.48727         591.237         286.549 
       0.502856         575.107         268.247 
       0.518488         567.285         251.497 
       0.534347          530.62         235.958 
       0.550082         511.492          221.84 
       0.565732          511.45         208.948 
       0.581496         480.422         196.999 
       0.597222         474.044         186.011 
       0.612804         460.872         175.953 
       0.628434         444.847         166.614 
       0.644267          432.43         157.848 
       0.660051         418.875         149.738 
       0.675724         415.932         142.251 
       0.691403         402.134         135.275 
       0.707174         387.994         128.732 
       0.722871           383.9         122.651 
        0.73838         377.772          117.03 
       0.754018         366.289          111.72 
       0.769845         356.354         106.683 
        0.78569         353.895         101.953 
       0.801365         342.504         97.5563 
       0.817031         332.745         93.4226 
       0.832809         329.379         89.5027 
       0.848511         320.736         85.8259 
       0.864097         314.138         82.3815 
       0.879701         309.776         79.1234 
       0.895507         304.155         76.0036 
       0.911279         294.338         73.0591 
        0.92691         291.436         70.2956 
       0.942635         285.308         67.6604 
       0.958396         279.589         65.1552 
       0.974128         274.774          62.782 
       0.989692         269.653          60.551 
        1.00528         265.423         58.4257 
        1.02113          262.88         56.3696 
        1.03692         256.389         54.4206 
        1.05264         252.332         52.5731 
        1.06832         247.184         50.8147 
        1.08405          242.14         49.1324 
        1.09979         239.368         47.5257 
        1.11537         234.508          46.007 
        1.13105          228.99          44.546 
        1.14679         228.586          43.143 
        1.16256         223.272          41.798 
        1.17828         219.607          40.515 
        1.19395         216.245         39.2903 
         1.2097         215.028         38.1103 
        1.22537         209.121         36.9846 
          1.241         208.458         35.9079 
        1.25666         202.753         34.8716 
        1.27241         200.657         33.8715 
        1.28819         197.331          32.909 
        1.30392         194.033         31.9868 
        1.31957         193.214         31.1042 
        1.33529         188.715         30.2518 
        1.35108         185.274         29.4281 
        1.36674         184.116          28.641 
         1.3824             181         27.8835 
        1.39811         180.489          27.151 
        1.41389         176.432         26.4421 
        1.42964         173.368         25.7598 
        1.44531         170.752         25.1049 
        1.46101         169.488         24.4715 
        1.47667         165.319         23.8619 
        1.49229         163.379         23.2748 
        1.50793         161.578         22.7068 
        1.52367         159.662         22.1541 
        1.53953         156.312         21.6162 
        1.55526         154.004         21.1005 
        1.57092         152.767         20.6038 
        1.58662         149.811          20.122 
        1.60235         148.208         19.6547 
        1.61809         146.443          19.202 
        1.63369         143.978         18.7676 
        1.64941         141.472         18.3436 
        1.66519         139.913         17.9312 
        1.68085         139.057         17.5345 
        1.69652         135.987         17.1496 
        1.71228         134.402         16.7742 
        1.72806          132.63         16.4097 
        1.74368         131.454         16.0597 
        1.75933         129.427         15.7193 
        1.77505         127.418         15.3871 
        1.79081         126.634          15.064 
         1.8065         124.567         14.7516 
        1.82218         122.204         14.4483 
        1.83797         120.953         14.1515 
        1.85367         119.443         13.8647 
        1.86928           118.1         13.5875 
        1.88497         115.574         13.3165 
        1.90073          114.82         13.0518 
        1.91647         112.931         12.7946 
        1.93218         111.502         12.5449 
        1.94787         110.255         12.3022 
        1.96363         108.692          12.065 
        1.97935         106.684         11.8346 
        1.99499         105.712         11.6115 
        2.01064         104.422         11.3938 
         2.0264         102.914         11.1803 
        2.04216         101.975         10.9724 
        2.05781         100.612         10.7712 
        2.07353         99.3006         10.5742 
        2.08928         97.7831         10.3818 
        2.10499          96.094         10.1947 
        2.12065         95.5115         10.0127 
        2.13633         94.4801         9.83507 
        2.15211         93.1115         9.66059 
        2.16785         91.4366         9.49084 
        2.18349         90.4487         9.32623 
        2.19916         89.6955         9.16518 
        2.21489         88.6106         9.00741 
        2.23063          86.889         8.85326 
         2.2463         86.2332          8.7034 
        2.26194         85.6748          8.5574 
        2.27765         83.9413           8.414 
        2.29341         83.2533         8.27351 
        2.30914         81.8696         8.13653 
        2.32486         81.2683         8.00273 
        2.34061         80.2478         7.87171 
        2.35635         78.7844         7.74376 
        2.37203         77.7623         7.61909 
        2.38768         76.9947         7.49742 
        2.40339         76.3137         7.37798 
        2.41914         74.8154         7.26086 
        2.43483         74.4494          7.1467 
         2.4505         73.3413         7.03519 
        2.46622         72.4309         6.92568 
        2.48195         71.5831          6.8185 
        2.49759         70.8547         6.71415 
        2.51328         69.9414         6.61172 
        2.52906         68.9999         6.51078 
        2.54479         68.5414         6.41233 
        2.56049         67.5562         6.31611 
        2.57618         66.9497         6.22194 
        2.59189         65.8399         6.12956 
        2.60758         65.2101         6.03919 
        2.62325         64.5229         5.95076 
        2.63898         63.7525          5.8638 
        2.65468         62.9254         5.77875 
        2.67044         62.0988         5.69503 
        2.68618         61.6732         5.61316 
        2.70184         61.2228         5.53323 
        2.71755         60.4874         5.45466 
        2.73329         59.6025         5.37749 
        2.74897          58.939         5.30207 
        2.76462         58.2054         5.22827 
        2.78034         57.4514         5.15556 
        2.79607         56.9052         5.08416 
        2.81179         56.2179          5.0142 
        2.82749         55.7294         4.94563 
        2.84321         54.9808         4.87827 
        2.85893         54.2981         4.81218 
        2.87462          53.758         4.74743 
        2.89033         53.1827         4.68381 
        2.90605         52.4536         4.62131 
        2.92176         52.1624         4.55998 
        2.93747         51.5348         4.49979 
        2.95318         50.8903         4.44068 
        2.96891         50.2879          4.3826 
        2.98456         49.7737         4.32582 
        3.00023         49.0787         4.26996 
        3.01596         48.7145         4.21492 
        3.03164         48.0001           4.161 
        3.04738         47.4553         4.10787 
         3.0631         47.0595         4.05568 
        3.07883         46.4796          4.0044 
        3.09456         46.2806         3.95401 
        3.11026         45.4792         3.90457 
        3.12596         45.0803         3.85598 
        3.14163         44.4948         3.80833 
        3.15734          44.128         3.76138 
        3.17308         43.6669          3.7151 
        3.18879         43.3219         3.66973 
        3.20447         42.5363         3.62518 
         3.2202         42.4184         3.58123 
         3.2359         41.8388         3.53809 
        3.25157         41.5354         3.49576 
        3.26729         41.0724           3.454 
        3.28304           40.53         3.41284 
        3.29877          40.124          3.3724 
        3.31446          39.685         3.33271 
        3.33014         39.4949         3.29369 
        3.34585         39.0776         3.25523 
        3.36158         38.6008         3.21734 
        3.37727          38.107         3.18016 
        3.39294         37.7696          3.1436 
        3.40867         37.2796         3.10749 
        3.42439          36.998         3.07197 
        3.44008         36.6335         3.03707 
        3.45578         36.1616         3.00269 
        3.47153         35.8272         2.96876 
        3.48724         35.6438         2.93541 
        3.50292         35.2953         2.90266 
        3.51859         34.7317         2.87042 
        3.53431         34.4321         2.83857 
        3.55007         34.0939         2.80713 
        3.56577         33.7439         2.77629 
        3.58146         33.3221         2.74592 
        3.59719         33.1091         2.71594 
        3.61292         32.7886         2.68642 
        3.62859         32.6016         2.65744 
        3.64429         32.1312         2.62884 
        3.66003         31.8401         2.60057 
        3.67578         31.4721         2.57273 
        3.69146         31.2487          2.5454 
        3.70712         30.9431         2.51851 
        3.72284         30.6032         2.49192 
        3.73853         30.4083         2.46575 
        3.75422         30.1361         2.43995 
        3.76993         29.8435          2.4145 
        3.78564         29.5473         2.38942 
        3.80137         29.1701         2.36466 
        3.81707         28.8923          2.3403 
        3.83279         28.6727         2.31626 
        3.84853          28.453         2.29252 
        3.86424         28.1221         2.26917 
        3.87992         27.9162         2.24617 
        3.89561         27.6345         2.22348 
        3.91134         27.3403         2.20107 
        3.92704         27.0881         2.17899 
        3.94273         26.7856         2.15723 
        3.95845         26.5145         2.13574 
        3.97418         26.3919         2.11453 
        3.98988         26.0986         2.09363 
        4.00554         25.8328         2.07308 
        4.02125         25.6193         2.05274 
        4.03698         25.3509         2.03265 
        4.05268         25.1997         2.01287 
        4.06839         24.9138         1.99333 
         4.0841         24.6728         1.97407 
        4.09983         24.4686         1.95503 
        4.11555         24.2996         1.93624 
        4.13124         24.0135         1.91776 
        4.14693         23.8272          1.8995 
        4.16266         23.5558         1.88144 
        4.17839         23.3482         1.86363 
        4.19408         23.2023         1.84608 
        4.20977         22.9237         1.82875 
        4.22551         22.8043         1.81161 
        4.24123         22.5993          1.7947 
        4.25691         22.3856         1.77805 
        4.27259         22.1489         1.76161 
        4.28831         21.9498         1.74534 
        4.30404         21.7479         1.72927 
        4.31974         21.6106         1.71343 
        4.33543         21.3813          1.6978 
        4.35116         21.2365         1.68232 
        4.36688          20.995         1.66705 
        4.38255         20.8427         1.65202 
        4.39825         20.6641         1.63714 
        4.41398         20.4828         1.62242 
         4.4297         20.3213         1.60789 
        4.44541         20.1549         1.59355 
        4.46111         19.9741         1.57939 
        4.47683         19.7753         1.56539 
        4.49251          19.598         1.55159 
        4.50819         19.4535         1.53796 
         4.5239         19.2843         1.52447 
        4.53962         19.1261         1.51113 
        4.55535         18.9443         1.49794 
        4.57106         18.8593         1.48493 
        4.58678         18.6562         1.47207 
         4.6025          18.505         1.45936 
        4.61821         18.3696          1.4468 
        4.63391         18.1921         1.43441 
         4.6496         18.0557         1.42216 
        4.66532         17.8837         1.41004 
        4.68103         17.7287         1.39807 
        4.69673         17.6083         1.38624 
        4.71241         17.4238         1.37457 
        4.72811         17.2863         1.36301 
        4.74384         17.1769         1.35156 
        4.75955         16.9992         1.34027 
        4.77525         16.8993         1.32911 
        4.79096          16.753         1.31807 
        4.80669         16.6083         1.30714 
         4.8224         16.4319         1.29636 
        4.83809         16.3255          1.2857 
        4.85379         16.2382         1.27516 
         4.8695         16.0561         1.26473 
        4.88521         15.9415         1.25442 
        4.90093         15.8206         1.24422 
        4.91663          15.686         1.23414 
        4.93234         15.5499         1.22417 
        4.94807         15.4437          1.2143 
        4.96377         15.3295         1.20455 
        4.97943         15.2279         1.19494 
        4.99514         15.0869          1.1854 
        5.01086         14.9721         1.17596 
        5.02654         14.8183         1.16665 
        5.04227         14.7235         1.15741 
          5.058         14.5897         1.14826 
        5.07371          14.528         1.13924 
        5.08942         14.4278         1.13031 
        5.10513         14.2713         1.12147 
        5.12084         14.1599         1.11272 
        5.13656         14.0473         1.10407 
        5.15225         13.9382         1.09553 
        5.16796         13.7994         1.08706 
        5.18369         13.7343         1.07867 
         5.1994         13.6417         1.07039 
        5.21509         13.5094          1.0622 
        5.23079         13.4273         1.05409 
        5.24649         13.3125         1.04607 
        5.26217         13.2504         1.03814 
        5.27788         13.0884         1.03028 
        5.29359         13.0102         1.02249 
        5.30933         12.9087         1.01478 
        5.32504         12.8156         1.00716 
        5.34073         12.7255        0.999629 
        5.35646         12.6324        0.992157 
        5.37218         12.5095        0.984761 
        5.38789          12.435        0.977452 
        5.40357         12.3253        0.970225 
        5.41929         12.2436        0.963055 
        5.43502         12.1647        0.955957 
         5.4507         12.0813        0.948948 
        5.46639         11.9769        0.942008 
        5.48212          11.889         0.93512 
        5.49786         11.8305        0.928294 
        5.51353         11.7222        0.921569 
        5.52921         11.6331        0.914905 
        5.54495           11.56        0.908286 
        5.56066         11.4536         0.90174 
        5.57637         11.3858         0.89526 
        5.59207         11.2922        0.888849 
        5.60778         11.2087        0.882498 
        5.62346         11.1397        0.876218 
        5.63916         11.0536        0.869994 
        5.65487         10.9587        0.863826 
         5.6706         10.9083        0.857711 
        5.68633         10.8288        0.851653 
        5.70203          10.737        0.845666 
        5.71773         10.6681        0.839738 
        5.73344         10.5782        0.833863 
        5.74916         10.5112        0.828039 
        5.76486         10.4276        0.822278 
        5.78054         10.3627        0.816581 
        5.79626          10.292        0.810922 
          5.812         10.2056        0.805311 
         5.8277         10.1303         0.79977 
        5.84339         10.0548         0.79428 
        5.85911         9.98625        0.788832 
        5.87484         9.93992        0.783435 
        5.89053         9.86054          0.7781 
        5.90623         9.76507        0.772812 
        5.92195         9.72469        0.767564 
        5.93767         9.66478        0.762368 
        5.95336         9.58759        0.757228 
        5.96905         9.51811        0.752137 
        5.98476         9.46974        0.747086 
        6.00048         9.38714         0.74208 
        6.01617         9.32052        0.737126 
        6.03185         9.23918        0.732224 
        6.04756         9.18635        0.727354 
        6.06331         9.13591        0.722519 
        6.07903         9.07016        0.717737 
        6.09473         9.00753        0.713003 
        6.11044         8.94184        0.708307 
        6.12616         8.87353        0.703655 
        6.14186         8.83797        0.699049 
        6.15755         8.76182        0.694484 
        6.17326          8.7166        0.689957 
        6.18898         8.65032        0.685467 
        6.20467         8.58503        0.681026 
        6.22036         8.51866        0.676624 
         6.2361         8.46766         0.67225 
         6.2518         8.40989        0.667921 
        6.26748         8.35566         0.66364 
        6.28319         8.29902        0.659384 
        6.29893         8.24369        0.655162 
        6.31463         8.18462        0.650984 
        6.33033         8.14569        0.646844 
        6.34604         8.08102        0.642737 
        6.36177         8.03902        0.638662 
        6.37747         7.98239        0.634629 
