# k  (h/Mpc)    Pcb(k)  (Mpc/h)^3    Pcb_linear(k) (Mpc/h)^3   ShotnoiseSubtracted = true
      0.0200456         18901.6         19186.3 
      0.0350414         15435.2           15044 
      0.0492313         11597.4         11919.5 
      0.0637834         9165.36         9692.44 
      0.0800726         6926.18         7321.71 
       0.096163         5873.77         5758.99 
       0.111083         5012.46         4874.98 
       0.126058          3986.4         4052.49 
       0.142273         3413.32         3297.67 
       0.158546         2911.87         2809.23 
        0.17375         2632.65         2444.12 
       0.188953         2445.68          2101.2 
       0.204907         2100.11         1818.89 
       0.220756         1908.97         1607.61 
        0.23588         1716.75         1427.91 
         0.2514          1551.9         1265.24 
       0.267535         1494.65         1128.38 
       0.283568         1333.62         1013.94 
       0.299022         1276.48          915.62 
       0.314451         1323.01         830.155 
       0.330372         1167.58         754.813 
       0.346141         1074.48         689.056 
       0.361624         1031.69         631.534 
       0.377134         986.378         580.661 
       0.392932         946.606         534.818 
       0.408854         903.155         493.484 
       0.424564         884.585         456.873 
       0.440253         819.545         424.103 
       0.455999         784.639         394.473 
       0.471626         796.114         367.824 
        0.48727         753.139         343.605 
       0.502856         716.984         321.659 
       0.518488          701.34         301.573 
       0.534347         667.911          282.94 
       0.550082         639.103         266.012 
       0.565732         630.803         250.553 
       0.581496          616.59         236.225 
       0.597222         601.925         223.048 
       0.612804         589.787         210.987 
       0.628434         564.398          199.79 
       0.644267           547.5         189.277 
       0.660051         540.555         179.553 
       0.675724         529.613         170.575 
       0.691403         515.028         162.211 
       0.707174         497.849         154.364 
       0.722871         488.935         147.072 
        0.73838         482.919         140.332 
       0.754018         468.434         133.965 
       0.769845         462.398         127.925 
        0.78569         452.431         122.253 
       0.801365         437.642         116.981 
       0.817031         433.198         112.024 
       0.832809         427.603         107.324 
       0.848511         418.259         102.915 
       0.864097         409.646         98.7848 
       0.879701         405.939          94.878 
       0.895507         390.635          91.137 
       0.911279         385.353         87.6062 
        0.92691         380.477         84.2924 
       0.942635         377.301         81.1325 
       0.958396         363.964         78.1285 
       0.974128         359.549         75.2828 
       0.989692         346.999         72.6076 
        1.00528         345.989         70.0591 
        1.02113         338.715         67.5936 
        1.03692         333.341         65.2564 
        1.05264         327.047         63.0411 
        1.06832         322.555         60.9326 
        1.08405         318.752         58.9154 
        1.09979         312.774         56.9887 
        1.11537         303.854         55.1676 
        1.13105         301.123         53.4157 
        1.14679         295.851         51.7334 
        1.16256         292.848         50.1205 
        1.17828         288.228          48.582 
        1.19395         280.817         47.1136 
         1.2097         280.041         45.6986 
        1.22537         273.763         44.3487 
          1.241         269.417         43.0577 
        1.25666          265.85          41.815 
        1.27241         261.375         40.6157 
        1.28819         256.791         39.4616 
        1.30392         254.987         38.3559 
        1.31957         248.124         37.2975 
        1.33529          245.49         36.2754 
        1.35108         242.717         35.2876 
        1.36674         237.335         34.3438 
         1.3824         235.277         33.4355 
        1.39811         232.285         32.5572 
        1.41389         225.761         31.7071 
        1.42964         223.466         30.8889 
        1.44531         220.268         30.1037 
        1.46101         217.151         29.3441 
        1.47667         213.883         28.6132 
        1.49229         210.766         27.9091 
        1.50793         207.981          27.228 
        1.52367          205.02         26.5653 
        1.53953         200.018         25.9203 
        1.55526         199.661          25.302 
        1.57092         197.262         24.7064 
        1.58662         192.606         24.1286 
        1.60235         190.723         23.5682 
        1.61809         187.968         23.0254 
        1.63369         184.446         22.5045 
        1.64941         182.265         21.9961 
        1.66519         179.442         21.5016 
        1.68085         176.384         21.0258 
        1.69652          174.87         20.5643 
        1.71228         172.131         20.1141 
        1.72806         169.303         19.6771 
        1.74368         167.966         19.2574 
        1.75933         166.266         18.8492 
        1.77505         163.359         18.4509 
        1.79081         160.172         18.0635 
         1.8065         158.371         17.6888 
        1.82218         155.307         17.3252 
        1.83797         154.279         16.9692 
        1.85367         152.217         16.6253 
        1.86928         149.186          16.293 
        1.88497         148.211          15.968 
        1.90073         146.304         15.6506 
        1.91647          143.47         15.3422 
        1.93218         142.126         15.0428 
        1.94787          139.56         14.7518 
        1.96363         139.273         14.4673 
        1.97935         136.904          14.191 
        1.99499         135.305         13.9235 
        2.01064         132.328         13.6624 
         2.0264         131.172         13.4065 
        2.04216         129.635         13.1572 
        2.05781         127.069         12.9158 
        2.07353         126.013         12.6797 
        2.08928         124.478         12.4489 
        2.10499         122.951         12.2246 
        2.12065         121.642         12.0064 
        2.13633         119.836         11.7934 
        2.15211         118.007         11.5842 
        2.16785         116.358         11.3806 
        2.18349         114.931         11.1832 
        2.19916         113.788         10.9901 
        2.21489         112.393         10.8009 
        2.23063         110.417         10.6161 
         2.2463         109.333         10.4364 
        2.26194         108.119         10.2613 
        2.27765         106.399         10.0893 
        2.29341         105.462         9.92088 
        2.30914         104.504         9.75663 
        2.32486         102.125         9.59618 
        2.34061         101.518         9.43908 
        2.35635         100.425         9.28565 
        2.37203         98.6716         9.13615 
        2.38768         97.8136         8.99027 
        2.40339         96.4759         8.84704 
        2.41914         95.2563          8.7066 
        2.43483         94.3097         8.56971 
         2.4505         93.1914           8.436 
        2.46622         91.7897         8.30468 
        2.48195         90.8863         8.17615 
        2.49759         89.4976         8.05103 
        2.51328          88.886         7.92821 
        2.52906         87.3896         7.80717 
        2.54479         86.4338         7.68912 
        2.56049         85.2283         7.57373 
        2.57618         84.0184         7.46082 
        2.59189         83.7767         7.35004 
        2.60758         82.1808         7.24168 
        2.62325         81.7632         7.13564 
        2.63898         80.7107         7.03136 
        2.65468         79.4919         6.92938 
        2.67044          78.386         6.82899 
        2.68618         77.6963         6.73082 
        2.70184          76.611         6.63498 
        2.71755         75.8651         6.54076 
        2.73329          74.676         6.44823 
        2.74897         74.2279         6.35779 
        2.76462         73.2257         6.26929 
        2.78034         72.1458          6.1821 
        2.79607         71.4261         6.09649 
        2.81179         70.7877         6.01259 
        2.82749         69.8081         5.93037 
        2.84321         69.0553          5.8496 
        2.85893         68.3278         5.77035 
        2.87462         67.4572         5.69271 
        2.89033         66.7532         5.61643 
        2.90605         66.2782         5.54148 
        2.92176         65.2236         5.46793 
        2.93747         64.6673         5.39576 
        2.95318         63.8267         5.32488 
        2.96891         63.2219         5.25524 
        2.98456         62.5884         5.18715 
        3.00023         61.6664         5.12017 
        3.01596         61.3217         5.05416 
        3.03164         60.4768         4.98951 
        3.04738         59.9546          4.9258 
         3.0631          59.119         4.86322 
        3.07883         58.5596         4.80173 
        3.09456         57.9124         4.74131 
        3.11026         57.1913         4.68203 
        3.12596         56.6274         4.62376 
        3.14163         56.0867         4.56662 
        3.15734          55.407         4.51032 
        3.17308         54.8844         4.45483 
        3.18879         54.0827         4.40042 
        3.20447         53.7555           4.347 
         3.2202         53.1065          4.2943 
         3.2359         52.5454         4.24257 
        3.25157         52.0501         4.19182 
        3.26729         51.4439         4.14174 
        3.28304         50.8623         4.09238 
        3.29877         50.3107         4.04389 
        3.31446         49.9113          3.9963 
        3.33014         49.4267         3.94951 
        3.34585          48.889          3.9034 
        3.36158         48.3823         3.85795 
        3.37727         47.9001         3.81337 
        3.39294         47.5185         3.76954 
        3.40867         46.9807         3.72624 
        3.42439         46.4259         3.68364 
        3.44008         45.9267         3.64179 
        3.45578         45.6414         3.60056 
        3.47153         45.0823         3.55988 
        3.48724         44.6202          3.5199 
        3.50292         44.1271         3.48062 
        3.51859         43.7488         3.44196 
        3.53431         43.0535         3.40377 
        3.55007         42.7669         3.36607 
        3.56577         42.2983         3.32909 
        3.58146         41.8146         3.29267 
        3.59719         41.3952         3.25672 
        3.61292         41.0084         3.22132 
        3.62859         40.7544         3.18658 
        3.64429         40.3862         3.15228 
        3.66003         39.9617         3.11838 
        3.67578         39.5659         3.08499 
        3.69146         39.1629         3.05222 
        3.70712         38.8844         3.01999 
        3.72284         38.5552         2.98809 
        3.73853         38.0635         2.95672 
        3.75422          37.665         2.92578 
        3.76993         37.3406         2.89526 
        3.78564         37.0228         2.86519 
        3.80137         36.6911          2.8355 
        3.81707         36.2082         2.80629 
        3.83279         35.8663         2.77746 
        3.84853          35.502           2.749 
        3.86424         35.2175         2.72099 
        3.87992         34.9773         2.69341 
        3.89561         34.6431         2.66621 
        3.91134         34.3508         2.63933 
        3.92704          33.908         2.61286 
        3.94273         33.6802         2.58677 
        3.95845         33.3694         2.56099 
        3.97418         32.9418         2.53556 
        3.98988         32.7391          2.5105 
        4.00554         32.3984         2.48586 
        4.02125          32.131         2.46147 
        4.03698         31.8638         2.43737 
        4.05268          31.623         2.41365 
        4.06839         31.2071         2.39023 
         4.0841         30.9926         2.36713 
        4.09983         30.7317          2.3443 
        4.11555         30.4421         2.32178 
        4.13124          30.132         2.29961 
        4.14693         29.8506         2.27772 
        4.16266         29.5493         2.25606 
        4.17839         29.3252          2.2347 
        4.19408         29.1043         2.21366 
        4.20977         28.8079         2.19288 
        4.22551          28.606         2.17232 
        4.24123         28.2895         2.15205 
        4.25691         28.0793         2.13209 
        4.27259         27.8418         2.11237 
        4.28831         27.5845         2.09287 
        4.30404         27.3232         2.07359 
        4.31974         27.1052          2.0546 
        4.33543         26.8404         2.03585 
        4.35116         26.5986          2.0173 
        4.36688         26.3936         1.99898 
        4.38255         26.2116         1.98096 
        4.39825         25.8654         1.96312 
        4.41398         25.7468         1.94546 
         4.4297         25.5303         1.92805 
        4.44541         25.3724         1.91084 
        4.46111            25.1         1.89386 
        4.47683         24.8609         1.87708 
        4.49251          24.672         1.86053 
        4.50819         24.4308         1.84419 
         4.5239         24.1712         1.82801 
        4.53962         24.0582         1.81202 
        4.55535          23.771          1.7962 
        4.57106         23.6181          1.7806 
        4.58678         23.4609         1.76518 
         4.6025          23.257         1.74994 
        4.61821         23.0377         1.73488 
        4.63391         22.8205         1.72002 
         4.6496         22.6874         1.70533 
        4.66532         22.4895          1.6908 
        4.68103         22.2554         1.67644 
        4.69673         22.0708         1.66226 
        4.71241         21.9136         1.64826 
        4.72811         21.7327          1.6344 
        4.74384         21.5804         1.62068 
        4.75955         21.4156         1.60714 
        4.77525         21.2568         1.59376 
        4.79096         21.0175         1.58051 
        4.80669         20.8781         1.56742 
         4.8224         20.7012         1.55448 
        4.83809         20.5251          1.5417 
        4.85379         20.3462         1.52906 
         4.8695          20.182         1.51655 
        4.88521         19.9946         1.50419 
        4.90093         19.8793         1.49196 
        4.91663         19.7291         1.47988 
        4.93234         19.5178         1.46792 
        4.94807         19.4307         1.45608 
        4.96377         19.2495          1.4444 
        4.97943         19.0723         1.43286 
        4.99514         18.9395         1.42143 
        5.01086         18.8121         1.41011 
        5.02654         18.6435         1.39894 
        5.04227         18.5136         1.38786 
          5.058         18.3298          1.3769 
        5.07371         18.1895         1.36608 
        5.08942         18.0604         1.35537 
        5.10513         17.9411         1.34477 
        5.12084         17.7733         1.33428 
        5.13656         17.6339         1.32391 
        5.15225         17.4913         1.31366 
        5.16796         17.3746         1.30351 
        5.18369         17.2062         1.29345 
         5.1994         17.0922         1.28352 
        5.21509         16.9523          1.2737 
        5.23079         16.8566         1.26397 
        5.24649         16.7348         1.25436 
        5.26217         16.5908         1.24484 
        5.27788         16.4614         1.23542 
        5.29359         16.3532         1.22609 
        5.30933         16.2009         1.21684 
        5.32504          16.088          1.2077 
        5.34073         15.9688         1.19867 
        5.35646          15.826         1.18971 
        5.37218         15.7172         1.18084 
        5.38789         15.5854         1.17208 
        5.40357         15.5082         1.16341 
        5.41929         15.3706         1.15481 
        5.43502         15.2495          1.1463 
         5.4507         15.1325          1.1379 
        5.46639         15.0121         1.12957 
        5.48212         14.9304         1.12132 
        5.49786         14.8172         1.11313 
        5.51353         14.7323         1.10507 
        5.52921         14.5942         1.09707 
        5.54495         14.5184         1.08914 
        5.56066         14.3635         1.08129 
        5.57637         14.2827         1.07352 
        5.59207         14.1637         1.06583 
        5.60778          14.088         1.05822 
        5.62346         13.9717         1.05069 
        5.63916         13.8611         1.04322 
        5.65487         13.7727         1.03583 
         5.6706         13.6681         1.02849 
        5.68633         13.5844         1.02123 
        5.70203         13.4719         1.01405 
        5.71773         13.3655         1.00694 
        5.73344         13.2852        0.999896 
        5.74916          13.179        0.992913 
        5.76486         13.0844        0.986005 
        5.78054         12.9889        0.979174 
        5.79626          12.908        0.972388 
          5.812         12.8005         0.96566 
         5.8277         12.7249        0.959015 
        5.84339         12.6171        0.952433 
        5.85911         12.5271        0.945899 
        5.87484         12.4719        0.939428 
        5.89053         12.3714        0.933031 
        5.90623         12.2673         0.92669 
        5.92195         12.1808        0.920397 
        5.93767         12.0902        0.914166 
        5.95336         12.0237        0.908002 
        5.96905           11.92        0.901898 
        5.98476         11.8803        0.895842 
        6.00048         11.7858        0.889839 
        6.01617         11.6713        0.883899 
        6.03185          11.624         0.87802 
        6.04756         11.5294        0.872181 
        6.06331         11.4472        0.866382 
        6.07903         11.3642        0.860648 
        6.09473         11.3029        0.854972 
        6.11044         11.1816        0.849341 
        6.12616         11.1438        0.843762 
        6.14186         11.0397        0.838239 
        6.15755          10.992        0.832765 
        6.17326         10.9087        0.827337 
        6.18898          10.814        0.821953 
        6.20467         10.7471        0.816628 
        6.22036         10.6683         0.81135 
         6.2361         10.5981        0.806104 
         6.2518         10.5513        0.800913 
        6.26748         10.4686        0.795779 
        6.28319         10.4136        0.790677 
        6.29893         10.3382        0.785614 
        6.31463         10.2695        0.780604 
        6.33033         10.1753         0.77564 
        6.34604         10.1231        0.770715 
        6.36177         10.0581        0.765828 
        6.37747         9.99145        0.760993 
