# k  (h/Mpc)    Pcb(k)  (Mpc/h)^3    Pcb_linear(k) (Mpc/h)^3   ShotnoiseSubtracted = true
      0.0200456         22538.5         23086.6 
      0.0350414         17178.4         18102.2 
      0.0492313         13880.8         14342.6 
      0.0637834         11805.3         11662.8 
      0.0800726         8965.27          8810.1 
       0.096163         6584.06         6929.71 
       0.111083         5524.91         5865.99 
       0.126058         4903.98         4876.31 
       0.142273         4151.02         3968.03 
       0.158546         3816.54          3380.3 
        0.17375         3101.75         2940.98 
       0.188953         2993.65         2528.34 
       0.204907         2802.94         2188.64 
       0.220756         2466.61         1934.41 
        0.23588         2216.23         1718.18 
         0.2514         1937.17         1522.44 
       0.267535         1943.26         1357.76 
       0.283568         1764.72         1220.06 
       0.299022         1675.83         1101.75 
       0.314451         1596.73         998.913 
       0.330372         1463.08         908.255 
       0.346141         1428.27         829.131 
       0.361624          1368.2         759.915 
       0.377134          1277.1         698.701 
       0.392932         1227.81         643.539 
       0.408854         1204.11         593.802 
       0.424564         1113.13         549.749 
       0.440253         1090.24         510.317 
       0.455999         1068.38         474.664 
       0.471626         1024.73         442.597 
        0.48727         986.853         413.456 
       0.502856          952.83         387.047 
       0.518488         948.022         362.878 
       0.534347         889.407         340.458 
       0.550082         874.066         320.088 
       0.565732         864.612         301.487 
       0.581496         821.395         284.246 
       0.597222         803.526          268.39 
       0.612804         791.875         253.878 
       0.628434         770.858         240.404 
       0.644267         749.627         227.755 
       0.660051         729.959         216.054 
       0.675724         723.823         205.251 
       0.691403         699.792         195.186 
       0.707174         678.085         185.745 
       0.722871         666.394          176.97 
        0.73838         652.844          168.86 
       0.754018         643.046         161.198 
       0.769845         630.279         153.931 
        0.78569         619.243         147.105 
       0.801365          602.88         140.762 
       0.817031         590.259         134.797 
       0.832809         583.225         129.141 
       0.848511         569.134         123.836 
       0.864097         551.746         118.866 
       0.879701         544.295         114.165 
       0.895507          543.01         109.664 
       0.911279         529.204         105.415 
        0.92691         522.282         101.428 
       0.942635         506.824         97.6255 
       0.958396         493.908         94.0109 
       0.974128         489.113         90.5867 
       0.989692         483.874         87.3677 
        1.00528         467.788         84.3011 
        1.02113         467.053         81.3344 
        1.03692         454.185         78.5221 
        1.05264          448.81         75.8565 
        1.06832         437.455         73.3193 
        1.08405         433.115          70.892 
        1.09979         426.197         68.5737 
        1.11537         417.985         66.3824 
        1.13105         411.962         64.2743 
        1.14679         401.739           62.25 
        1.16256         391.241         60.3093 
        1.17828         392.065         58.4581 
        1.19395         383.121         56.6911 
         1.2097         374.152         54.9885 
        1.22537          367.48         53.3642 
          1.241         362.128         51.8107 
        1.25666          356.57         50.3154 
        1.27241         350.938         48.8723 
        1.28819         344.109         47.4836 
        1.30392         338.367         46.1531 
        1.31957         333.597         44.8796 
        1.33529         330.418         43.6497 
        1.35108         322.466         42.4611 
        1.36674         316.317         41.3255 
         1.3824         313.612         40.2325 
        1.39811         307.315         39.1756 
        1.41389         304.028         38.1527 
        1.42964         299.914         37.1682 
        1.44531         295.684         36.2233 
        1.46101         288.418         35.3094 
        1.47667         284.984         34.4298 
        1.49229         281.088         33.5826 
        1.50793         274.329         32.7631 
        1.52367         273.047         31.9657 
        1.53953         266.842         31.1896 
        1.55526         263.445         30.4455 
        1.57092         261.494         29.7288 
        1.58662         257.245         29.0336 
        1.60235         252.165         28.3593 
        1.61809         248.489         27.7061 
        1.63369          245.71         27.0794 
        1.64941           240.8         26.4676 
        1.66519         238.474         25.8725 
        1.68085         236.101         25.3001 
        1.69652         231.517         24.7448 
        1.71228         225.518          24.203 
        1.72806         223.064         23.6771 
        1.74368         220.131         23.1722 
        1.75933         217.337          22.681 
        1.77505         215.034         22.2017 
        1.79081         211.776         21.7355 
         1.8065         207.269         21.2847 
        1.82218         205.045         20.8471 
        1.83797         204.123         20.4189 
        1.85367         199.944          20.005 
        1.86928         196.236         19.6051 
        1.88497         194.375          19.214 
        1.90073         191.509         18.8322 
        1.91647         189.172         18.4611 
        1.93218          185.85         18.1007 
        1.94787         182.366         17.7506 
        1.96363         179.936         17.4083 
        1.97935         178.018         17.0758 
        1.99499         175.916         16.7539 
        2.01064         173.282         16.4398 
         2.0264         171.995         16.1318 
        2.04216         169.272         15.8319 
        2.05781         166.537         15.5414 
        2.07353         164.032         15.2573 
        2.08928         161.721         14.9796 
        2.10499         160.282         14.7096 
        2.12065         157.926         14.4471 
        2.13633         155.439         14.1908 
        2.15211          153.46          13.939 
        2.16785         152.018         13.6941 
        2.18349         149.751         13.4566 
        2.19916         147.685         13.2242 
        2.21489         146.101         12.9966 
        2.23063         144.191         12.7742 
         2.2463         141.334         12.5579 
        2.26194         139.656         12.3473 
        2.27765         138.064         12.1404 
        2.29341         136.451         11.9377 
        2.30914         134.765           11.74 
        2.32486         133.242         11.5469 
        2.34061         131.365         11.3579 
        2.35635         129.504         11.1733 
        2.37203         128.145         10.9934 
        2.38768         126.127         10.8179 
        2.40339          124.66         10.6455 
        2.41914         123.042         10.4765 
        2.43483         122.111         10.3118 
         2.4505         120.455         10.1509 
        2.46622         118.812          9.9929 
        2.48195         116.991         9.83825 
        2.49759         115.853         9.68769 
        2.51328          114.83          9.5399 
        2.52906         113.007         9.39426 
        2.54479         111.141          9.2522 
        2.56049         109.739         9.11336 
        2.57618         108.853         8.97749 
        2.59189         108.012         8.84419 
        2.60758         106.131         8.71381 
        2.62325         105.059         8.58621 
        2.63898         103.621         8.46073 
        2.65468          102.36         8.33802 
        2.67044          101.02         8.21723 
        2.68618          100.34          8.0991 
        2.70184         99.0362         7.98377 
        2.71755         97.8864          7.8704 
        2.73329         96.4184         7.75906 
        2.74897         95.6913         7.65024 
        2.76462         94.2898         7.54374 
        2.78034         93.3456         7.43884 
        2.79607         92.1261         7.33582 
        2.81179         91.5066         7.23487 
        2.82749         90.3296         7.13593 
        2.84321         88.9541         7.03874 
        2.85893         87.8597         6.94338 
        2.87462         86.9932         6.84996 
        2.89033         86.0504         6.75817 
        2.90605         85.3659         6.66798 
        2.92176         83.9806         6.57949 
        2.93747         83.3314         6.49264 
        2.95318         82.5695         6.40735 
        2.96891         81.7101         6.32355 
        2.98456         80.6254         6.24162 
        3.00023         79.7154         6.16103 
        3.01596         78.5582          6.0816 
        3.03164         78.0458         6.00381 
        3.04738         77.1296         5.92714 
         3.0631         76.2392         5.85185 
        3.07883          75.359         5.77785 
        3.09456         74.7872         5.70515 
        3.11026         73.7306         5.63382 
        3.12596         73.1312         5.56371 
        3.14163         72.2411         5.49495 
        3.15734         71.5553          5.4272 
        3.17308         70.7113         5.36043 
        3.18879         69.9116         5.29496 
        3.20447         69.1734         5.23068 
         3.2202         68.4474         5.16727 
         3.2359         67.7581         5.10503 
        3.25157         67.0835         5.04395 
        3.26729         66.3849          4.9837 
        3.28304         65.5787          4.9243 
        3.29877         65.0291         4.86596 
        3.31446         64.2511         4.80869 
        3.33014         63.5018         4.75239 
        3.34585         62.7801          4.6969 
        3.36158         62.2403         4.64222 
        3.37727         61.7288         4.58858 
        3.39294         60.9682         4.53583 
        3.40867         60.4403         4.48373 
        3.42439         59.7014         4.43247 
        3.44008          59.174         4.38212 
        3.45578         58.3705          4.3325 
        3.47153         57.9454         4.28355 
        3.48724         57.6035         4.23544 
        3.50292         57.0533         4.18818 
        3.51859         56.2895         4.14167 
        3.53431         55.7518         4.09571 
        3.55007         55.3221         4.05035 
        3.56577         54.6256         4.00584 
        3.58146         54.0397         3.96203 
        3.59719         53.6544         3.91877 
        3.61292         53.1042         3.87617 
        3.62859         52.5194         3.83436 
        3.64429         51.9735         3.79309 
        3.66003          51.511          3.7523 
        3.67578         51.0617         3.71213 
        3.69146         50.5417         3.67269 
        3.70712         50.1656          3.6339 
        3.72284          49.642         3.59553 
        3.73853          49.185         3.55778 
        3.75422          48.587         3.52055 
        3.76993         48.2126         3.48383 
        3.78564         47.7604         3.44764 
        3.80137         47.4279         3.41191 
        3.81707         46.8251         3.37676 
        3.83279         46.3784         3.34208 
        3.84853         46.0677         3.30783 
        3.86424          45.775         3.27413 
        3.87992         45.1645         3.24094 
        3.89561         44.7297         3.20821 
        3.91134         44.3533         3.17587 
        3.92704         43.9169         3.14401 
        3.94273         43.4205         3.11262 
        3.95845         43.0211          3.0816 
        3.97418         42.7526           3.051 
        3.98988         42.2834         3.02085 
        4.00554         41.9499          2.9912 
        4.02125         41.5042         2.96185 
        4.03698         41.1761         2.93286 
        4.05268         40.6251         2.90432 
        4.06839         40.3518         2.87613 
         4.0841         40.1106         2.84833 
        4.09983         39.7486         2.82086 
        4.11555         39.3202         2.79376 
        4.13124         38.9434         2.76709 
        4.14693         38.7883         2.74075 
        4.16266         38.3734         2.71469 
        4.17839         38.0189         2.68898 
        4.19408         37.5575         2.66367 
        4.20977         37.3786         2.63867 
        4.22551         36.9451         2.61393 
        4.24123         36.6622         2.58953 
        4.25691          36.275         2.56551 
        4.27259         35.9679         2.54179 
        4.28831         35.7582         2.51832 
        4.30404          35.359         2.49512 
        4.31974         35.1382         2.47227 
        4.33543         34.6989         2.44971 
        4.35116         34.5269         2.42738 
        4.36688         34.2824         2.40534 
        4.38255         33.8253         2.38366 
        4.39825         33.5711         2.36219 
        4.41398         33.3347         2.34095 
         4.4297          32.941         2.31999 
        4.44541         32.8155         2.29929 
        4.46111         32.4822         2.27886 
        4.47683         32.1727         2.25866 
        4.49251          31.882         2.23875 
        4.50819          31.611         2.21908 
         4.5239         31.4292         2.19962 
        4.53962         31.0961         2.18037 
        4.55535         30.8466         2.16134 
        4.57106         30.6329         2.14257 
        4.58678         30.3423         2.12401 
         4.6025          30.029         2.10567 
        4.61821         29.8252         2.08755 
        4.63391         29.5696         2.06967 
         4.6496         29.2751           2.052 
        4.66532         29.1116         2.03451 
        4.68103         28.9312         2.01724 
        4.69673          28.573         2.00018 
        4.71241         28.4683         1.98333 
        4.72811         28.0992         1.96665 
        4.74384         27.9275         1.95014 
        4.75955         27.6558         1.93385 
        4.77525          27.474         1.91775 
        4.79096         27.3124         1.90181 
        4.80669         26.9964         1.88605 
         4.8224         26.8732         1.87048 
        4.83809         26.6079         1.85511 
        4.85379         26.3809          1.8399 
         4.8695         26.1619         1.82484 
        4.88521         25.9637         1.80997 
        4.90093         25.7381         1.79525 
        4.91663         25.4906         1.78071 
        4.93234         25.3446         1.76632 
        4.94807         25.1471         1.75208 
        4.96377          24.914         1.73802 
        4.97943         24.7981         1.72415 
        4.99514          24.564         1.71039 
        5.01086         24.3493         1.69677 
        5.02654          24.166         1.68333 
        5.04227         23.9102            1.67 
          5.058          23.787          1.6568 
        5.07371         23.5849         1.64378 
        5.08942         23.4311         1.63089 
        5.10513         23.2066         1.61814 
        5.12084         23.0271         1.60552 
        5.13656         22.9066         1.59304 
        5.15225         22.7011         1.58071 
        5.16796         22.5257         1.56849 
        5.18369         22.2851         1.55639 
         5.1994          22.181         1.54444 
        5.21509         22.0022         1.53263 
        5.23079         21.7811         1.52092 
        5.24649         21.6224         1.50935 
        5.26217          21.437          1.4979 
        5.27788         21.3289         1.48656 
        5.29359         21.2119         1.47533 
        5.30933         20.9729          1.4642 
        5.32504           20.85         1.45321 
        5.34073         20.6778         1.44234 
        5.35646         20.5526         1.43156 
        5.37218          20.384         1.42089 
        5.38789         20.2154         1.41034 
        5.40357         20.0508         1.39991 
        5.41929         19.9311         1.38957 
        5.43502         19.7856         1.37933 
         5.4507         19.6505         1.36921 
        5.46639         19.4685          1.3592 
        5.48212         19.3222         1.34926 
        5.49786         19.1869         1.33941 
        5.51353         19.0308         1.32971 
        5.52921         18.8695         1.32009 
        5.54495          18.767         1.31054 
        5.56066         18.6365          1.3011 
        5.57637           18.48         1.29175 
        5.59207         18.3206          1.2825 
        5.60778         18.1565         1.27334 
        5.62346         18.0376         1.26427 
        5.63916         17.9667         1.25529 
        5.65487         17.7895         1.24639 
         5.6706         17.6974         1.23757 
        5.68633         17.5305         1.22883 
        5.70203         17.3919         1.22019 
        5.71773         17.3014         1.21164 
        5.73344         17.1787         1.20316 
        5.74916         17.0213         1.19476 
        5.76486         16.9166         1.18645 
        5.78054         16.7739         1.17823 
        5.79626         16.6706         1.17006 
          5.812         16.5591         1.16196 
         5.8277         16.4624         1.15397 
        5.84339         16.3582         1.14605 
        5.85911         16.2067         1.13819 
        5.87484         16.0893          1.1304 
        5.89053         15.9872          1.1227 
        5.90623         15.8979         1.11507 
        5.92195         15.7735          1.1075 
        5.93767          15.644             1.1 
        5.95336         15.5298         1.09259 
        5.96905         15.4443         1.08524 
        5.98476         15.3215         1.07795 
        6.00048         15.2164         1.07073 
        6.01617         15.1174         1.06358 
        6.03185         14.9981         1.05651 
        6.04756         14.8825         1.04948 
        6.06331         14.7868         1.04251 
        6.07903         14.6907         1.03561 
        6.09473         14.5995         1.02878 
        6.11044         14.4859           1.022 
        6.12616         14.3826         1.01529 
        6.14186         14.2832         1.00864 
        6.15755         14.1894         1.00205 
        6.17326         14.0761        0.995522 
        6.18898          14.004        0.989045 
        6.20467         13.9179        0.982636 
        6.22036         13.8038        0.976285 
         6.2361         13.6988        0.969973 
         6.2518         13.5853        0.963727 
        6.26748         13.5226         0.95755 
        6.28319          13.449         0.95141 
        6.29893         13.3132        0.945318 
        6.31463          13.248         0.93929 
        6.33033           13.17        0.933316 
        6.34604         13.0696         0.92739 
        6.36177         13.0057         0.92151 
        6.37747         12.8963        0.915692 
