#  k  (h/Mpc)          P(k)  (Mpc/h)^3     P_linear(k) (Mpc/h)^3
      0.0200456           27588         28324.5 
      0.0350414         20914.3         22209.3 
      0.0492313         16899.4         17596.6 
      0.0637834         14437.8         14308.8 
      0.0800726         10962.3           10809 
       0.096163         8012.83         8501.94 
       0.111083         6756.14         7196.87 
       0.126058         5995.74         5982.65 
       0.142273         5093.68         4868.31 
       0.158546         4744.75         4147.23 
        0.17375         3870.74         3608.23 
       0.188953         3755.71         3101.98 
       0.204907         3520.95         2685.21 
       0.220756         3108.12          2373.3 
        0.23588         2819.83            2108 
         0.2514         2488.01         1867.86 
       0.267535         2502.85         1665.81 
       0.283568         2273.11         1496.87 
       0.299022         2177.68         1351.72 
       0.314451         2073.23         1225.55 
       0.330372         1892.21         1114.32 
       0.346141         1888.43         1017.25 
       0.361624         1815.64         932.326 
       0.377134         1706.41         857.223 
       0.392932         1637.31         789.546 
       0.408854         1606.96         728.525 
       0.424564         1484.24         674.477 
       0.440253         1455.01         626.098 
       0.455999         1446.77         582.356 
       0.471626         1385.33         543.014 
        0.48727         1341.41         507.261 
       0.502856         1280.76         474.861 
       0.518488         1298.11         445.209 
       0.534347         1211.07         417.702 
       0.550082         1204.84          392.71 
       0.565732         1183.03         369.889 
       0.581496         1135.64         348.736 
       0.597222         1103.51         329.283 
       0.612804         1090.52         311.478 
       0.628434         1061.33         294.947 
       0.644267         1036.43         279.428 
       0.660051         1017.94         265.073 
       0.675724         1009.26         251.819 
       0.691403          983.02          239.47 
       0.707174         948.689         227.887 
       0.722871         923.743         217.121 
        0.73838         913.101         207.171 
       0.754018         896.641         197.772 
       0.769845         882.346         188.855 
        0.78569         870.983         180.481 
       0.801365         846.042         172.698 
       0.817031          833.53          165.38 
       0.832809         819.066         158.441 
       0.848511         803.397         151.932 
       0.864097         779.591         145.835 
       0.879701         766.045         140.067 
       0.895507         762.027         134.545 
       0.911279         753.324         129.332 
        0.92691         733.882          124.44 
       0.942635         713.839         119.775 
       0.958396         706.588          115.34 
       0.974128         695.866         111.139 
       0.989692         685.348          107.19 
        1.00528         663.473         103.427 
        1.02113         664.311         99.7877 
        1.03692         648.198         96.3374 
        1.05264         637.572         93.0669 
        1.06832         625.492         89.9541 
        1.08405         613.443         86.9761 
        1.09979         603.916         84.1318 
        1.11537         595.432         81.4434 
        1.13105         587.496          78.857 
        1.14679         575.258         76.3734 
        1.16256         565.792         73.9924 
        1.17828          559.81         71.7212 
        1.19395         549.419         69.5533 
         1.2097         535.147         67.4643 
        1.22537          528.56         65.4716 
          1.241         518.898         63.5656 
        1.25666         516.539         61.7311 
        1.27241         504.794         59.9606 
        1.28819         490.974         58.2568 
        1.30392         488.648         56.6243 
        1.31957         476.296         55.0619 
        1.33529         471.368          53.553 
        1.35108         462.337         52.0948 
        1.36674         454.457         50.7015 
         1.3824         449.729         49.3605 
        1.39811         439.251         48.0638 
        1.41389         435.475         46.8089 
        1.42964         430.892          45.601 
        1.44531          425.33         44.4417 
        1.46101         416.893         43.3205 
        1.47667         407.402         42.2413 
        1.49229         404.672         41.2019 
        1.50793         392.754         40.1964 
        1.52367         391.771         39.2181 
        1.53953         380.817         38.2659 
        1.55526         380.799          37.353 
        1.57092         376.757         36.4737 
        1.58662         368.844         35.6208 
        1.60235         363.647         34.7935 
        1.61809           359.6         33.9921 
        1.63369         351.563         33.2232 
        1.64941         345.657         32.4726 
        1.66519         342.102         31.7425 
        1.68085         338.694         31.0402 
        1.69652         334.897         30.3589 
        1.71228          326.54         29.6943 
        1.72806          323.75         29.0491 
        1.74368         317.034         28.4295 
        1.75933         313.482         27.8269 
        1.77505         307.977         27.2389 
        1.79081         305.108         26.6669 
         1.8065         299.615         26.1138 
        1.82218         297.058         25.5769 
        1.83797         292.432         25.0515 
        1.85367         287.454         24.5438 
        1.86928         282.558         24.0532 
        1.88497         280.151         23.5734 
        1.90073         275.595         23.1049 
        1.91647         271.667         22.6495 
        1.93218         267.831         22.2075 
        1.94787         264.428         21.7779 
        1.96363         261.253          21.358 
        1.97935         256.433           20.95 
        1.99499         253.123          20.555 
        2.01064         249.916         20.1697 
         2.0264         246.626         19.7918 
        2.04216         244.716         19.4238 
        2.05781         241.213         19.0675 
        2.07353         236.948         18.7189 
        2.08928         233.699         18.3782 
        2.10499         230.356          18.047 
        2.12065         227.265         17.7249 
        2.13633         225.637         17.4104 
        2.15211         222.459         17.1016 
        2.16785         220.297          16.801 
        2.18349         217.178         16.5097 
        2.19916         213.063         16.2246 
        2.21489         212.454         15.9453 
        2.23063         208.694         15.6724 
         2.2463         205.358         15.4071 
        2.26194         202.895         15.1486 
        2.27765          199.48         14.8948 
        2.29341         197.463         14.6461 
        2.30914         194.679         14.4036 
        2.32486         193.769         14.1667 
        2.34061         189.371         13.9348 
        2.35635         189.154         13.7083 
        2.37203         185.248         13.4876 
        2.38768         182.373         13.2722 
        2.40339         181.561         13.0608 
        2.41914         179.057         12.8535 
        2.43483         176.722         12.6514 
         2.4505          174.34          12.454 
        2.46622         172.964         12.2601 
        2.48195         170.504         12.0704 
        2.49759         168.558         11.8857 
        2.51328         166.052         11.7043 
        2.52906         164.396         11.5256 
        2.54479         162.907         11.3514 
        2.56049         160.889          11.181 
        2.57618          159.06         11.0143 
        2.59189         156.981         10.8508 
        2.60758         154.613         10.6908 
        2.62325         153.369         10.5343 
        2.63898         150.959         10.3803 
        2.65468         150.043         10.2298 
        2.67044         148.649         10.0816 
        2.68618         146.605         9.93664 
        2.70184         144.556         9.79514 
        2.71755         143.085         9.65605 
        2.73329         140.754         9.51945 
        2.74897         140.006         9.38594 
        2.76462         138.229         9.25528 
        2.78034          136.73         9.12657 
        2.79607         135.224         9.00018 
        2.81179         133.962         8.87633 
        2.82749         132.466         8.75495 
        2.84321         130.245          8.6357 
        2.85893         128.788         8.51871 
        2.87462         127.591         8.40409 
        2.89033         125.946         8.29147 
        2.90605         125.497         8.18082 
        2.92176          123.22         8.07225 
        2.93747         122.297         7.96571 
        2.95318         120.928         7.86106 
        2.96891         119.688         7.75825 
        2.98456         118.204         7.65773 
        3.00023          117.28         7.55885 
        3.01596         115.895         7.46141 
        3.03164         114.744         7.36596 
        3.04738         113.183         7.27191 
         3.0631         112.073         7.17953 
        3.07883         110.819         7.08875 
        3.09456         109.574         6.99955 
        3.11026         108.995         6.91203 
        3.12596         107.239         6.82601 
        3.14163         106.303         6.74166 
        3.15734         105.654         6.65853 
        3.17308          104.11         6.57661 
        3.18879         102.901         6.49629 
        3.20447         102.113         6.41743 
         3.2202         101.008         6.33963 
         3.2359         100.108         6.26326 
        3.25157         98.9279         6.18834 
        3.26729         97.7786         6.11441 
        3.28304         96.9145         6.04154 
        3.29877         96.0157         5.96996 
        3.31446         94.7425         5.89969 
        3.33014         94.4343         5.83062 
        3.34585         92.9151         5.76254 
        3.36158          92.078         5.69545 
        3.37727         90.9421         5.62964 
        3.39294         90.0553         5.56493 
        3.40867         89.2748         5.50101 
        3.42439         88.2391         5.43812 
        3.44008         87.3806         5.37634 
        3.45578         86.4832         5.31547 
        3.47153         85.8912         5.25541 
        3.48724         84.7126         5.19639 
        3.50292         84.1684         5.13841 
        3.51859         83.2471         5.08134 
        3.53431         82.3544         5.02496 
        3.55007         81.6998          4.9693 
        3.56577         80.9381          4.9147 
        3.58146         80.4811         4.86094 
        3.59719          79.288         4.80786 
        3.61292         78.4224          4.7556 
        3.62859         77.7339         4.70431 
        3.64429         76.9562         4.65367 
        3.66003          76.212         4.60363 
        3.67578         75.4464         4.55434 
        3.69146         74.9785         4.50596 
        3.70712         74.2517         4.45837 
        3.72284         73.5391         4.41129 
        3.73853         72.7783         4.36497 
        3.75422         72.1423          4.3193 
        3.76993         71.5582         4.27425 
        3.78564         70.5861         4.22985 
        3.80137         70.1971         4.18602 
        3.81707         69.6193         4.14289 
        3.83279          68.787         4.10034 
        3.84853         68.2861         4.05832 
        3.86424         67.6428         4.01697 
        3.87992         67.1629         3.97625 
        3.89561         66.3974          3.9361 
        3.91134          65.704         3.89642 
        3.92704         65.2537         3.85733 
        3.94273         64.7207         3.81882 
        3.95845         64.0953         3.78076 
        3.97418          63.241         3.74322 
        3.98988         62.8125         3.70623 
        4.00554          62.261         3.66985 
        4.02125         61.7708         3.63384 
        4.03698         61.2674         3.59827 
        4.05268         60.6543         3.56325 
        4.06839         60.1993         3.52868 
         4.0841         59.4778         3.49457 
        4.09983         59.1391         3.46086 
        4.11555         58.4858         3.42762 
        4.13124         57.9665          3.3949 
        4.14693         57.5411         3.36258 
        4.16266         56.9835          3.3306 
        4.17839         56.5669         3.29906 
        4.19408         55.9242           3.268 
        4.20977           55.49         3.23733 
        4.22551          54.929         3.20698 
        4.24123         54.4814         3.17705 
        4.25691         53.9047         3.14758 
        4.27259         53.5021         3.11847 
        4.28831         53.2578         3.08968 
        4.30404         52.5333         3.06122 
        4.31974         52.3477         3.03318 
        4.33543         51.7223         3.00551 
        4.35116         51.2474         2.97811 
        4.36688         50.8926         2.95107 
        4.38255         50.4134         2.92447 
        4.39825         49.9707         2.89813 
        4.41398          49.556         2.87207 
         4.4297         49.2017         2.84635 
        4.44541         48.6531         2.82096 
        4.46111         48.2646         2.79589 
        4.47683         47.8126         2.77111 
        4.49251         47.6076         2.74668 
        4.50819         47.0119         2.72255 
         4.5239         46.6989         2.69868 
        4.53962         46.2599         2.67506 
        4.55535         45.9706         2.65171 
        4.57106         45.6655         2.62868 
        4.58678         45.2446         2.60591 
         4.6025         44.8219         2.58341 
        4.61821          44.422         2.56118 
        4.63391          44.101         2.53924 
         4.6496         43.5669         2.51756 
        4.66532         43.3288         2.49611 
        4.68103         43.0545         2.47491 
        4.69673         42.6552         2.45398 
        4.71241         42.3583         2.43331 
        4.72811         41.9989         2.41285 
        4.74384         41.6048         2.39259 
        4.75955          41.315          2.3726 
        4.77525         40.9761         2.35285 
        4.79096         40.6766          2.3333 
        4.80669         40.3005         2.31396 
         4.8224         40.0276         2.29486 
        4.83809         39.6499           2.276 
        4.85379         39.2873         2.25734 
         4.8695         39.0286         2.23887 
        4.88521          38.635         2.22062 
        4.90093         38.2972         2.20256 
        4.91663         38.1072         2.18473 
        4.93234         37.7656         2.16707 
        4.94807         37.4382         2.14959 
        4.96377         37.0924         2.13235 
        4.97943         36.8686         2.11532 
        4.99514         36.5054         2.09844 
        5.01086          36.247         2.08173 
        5.02654         35.9859         2.06525 
        5.04227         35.7971         2.04889 
          5.058         35.3933          2.0327 
        5.07371         35.1583         2.01672 
        5.08942         34.8564         2.00091 
        5.10513         34.6097         1.98527 
        5.12084         34.3049         1.96979 
        5.13656           34.17         1.95447 
        5.15225         33.8374         1.93935 
        5.16796         33.5117         1.92436 
        5.18369         33.2659         1.90951 
         5.1994          33.071         1.89485 
        5.21509         32.7572         1.88035 
        5.23079         32.4889         1.86599 
        5.24649         32.2141         1.85179 
        5.26217         31.9833         1.83775 
        5.27788         31.7883         1.82383 
        5.29359         31.5134         1.81006 
        5.30933         31.3303         1.79641 
        5.32504         31.1042         1.78292 
        5.34073         30.8191         1.76958 
        5.35646          30.608         1.75636 
        5.37218         30.2893         1.74326 
        5.38789         30.1022         1.73032 
        5.40357         29.8212         1.71753 
        5.41929         29.6323         1.70484 
        5.43502         29.4346         1.69227 
         5.4507         29.2402         1.67986 
        5.46639         29.0117         1.66758 
        5.48212         28.7555         1.65539 
        5.49786         28.5737          1.6433 
        5.51353          28.351          1.6314 
        5.52921         28.0593          1.6196 
        5.54495         27.9719         1.60788 
        5.56066         27.7338          1.5963 
        5.57637         27.4925         1.58482 
        5.59207         27.3241         1.57348 
        5.60778         27.0895         1.56223 
        5.62346         26.8655         1.55112 
        5.63916         26.7364          1.5401 
        5.65487          26.496         1.52918 
         5.6706         26.2325         1.51835 
        5.68633           26.05         1.50763 
        5.70203         25.8762         1.49703 
        5.71773         25.7564         1.48654 
        5.73344         25.5405         1.47614 
        5.74916         25.3581         1.46583 
        5.76486         25.1661         1.45563 
        5.78054         24.9571         1.44554 
        5.79626         24.7753         1.43553 
          5.812         24.5722         1.42559 
         5.8277         24.3392         1.41578 
        5.84339         24.2584         1.40607 
        5.85911         24.0704         1.39642 
        5.87484          23.919         1.38687 
        5.89053         23.6943         1.37742 
        5.90623         23.5576         1.36806 
        5.92195         23.3905         1.35877 
        5.93767         23.2123         1.34957 
        5.95336         23.0519         1.34047 
        5.96905         22.8912         1.33146 
        5.98476         22.7327         1.32252 
        6.00048         22.5384         1.31366 
        6.01617         22.3921         1.30489 
        6.03185         22.2422         1.29621 
        6.04756         22.0963         1.28759 
        6.06331         21.9338         1.27903 
        6.07903         21.7495         1.27057 
        6.09473          21.634         1.26219 
        6.11044         21.4353         1.25387 
        6.12616         21.3223         1.24564 
        6.14186         21.1619         1.23748 
        6.15755         21.0012          1.2294 
        6.17326         20.8544         1.22139 
        6.18898         20.7235         1.21344 
        6.20467         20.5777         1.20558 
        6.22036         20.4209         1.19779 
         6.2361         20.2646         1.19004 
         6.2518         20.1219         1.18238 
        6.26748         20.0043          1.1748 
        6.28319         19.8208         1.16727 
        6.29893         19.7295         1.15979 
        6.31463         19.5801          1.1524 
        6.33033         19.4508         1.14507 
        6.34604         19.3284          1.1378 
        6.36177         19.1657         1.13058 
        6.37747         19.0638         1.12345 
