#  k  (h/Mpc)          P(k)  (Mpc/h)^3     P_linear(k) (Mpc/h)^3
      0.0200456         29454.7         30266.4 
      0.0350414         22303.5           23732 
      0.0492313         18029.1           18803 
      0.0637834         15437.4         15289.8 
      0.0800726         11723.6           11550 
       0.096163         8562.67         9084.82 
       0.111083         7235.87         7690.28 
       0.126058         6419.76         6392.82 
       0.142273          5460.8         5202.07 
       0.158546         5108.56         4431.56 
        0.17375         4176.88         3855.61 
       0.188953         4057.45         3314.65 
       0.204907         3802.13          2869.3 
       0.220756         3356.45         2536.01 
        0.23588         3055.29         2252.52 
         0.2514         2705.36         1995.92 
       0.267535         2718.38         1780.02 
       0.283568         2464.81          1599.5 
       0.299022         2364.89         1444.39 
       0.314451         2248.13         1309.57 
       0.330372         2046.88         1190.72 
       0.346141         2051.88         1086.99 
       0.361624         1971.95         996.246 
       0.377134         1857.15         915.993 
       0.392932         1776.63         843.677 
       0.408854         1739.61         778.472 
       0.424564         1605.53         720.718 
       0.440253         1574.79         669.023 
       0.455999         1565.97         622.282 
       0.471626         1494.56         580.243 
        0.48727         1448.57         542.038 
       0.502856         1375.87         507.418 
       0.518488         1400.89         475.732 
       0.534347         1302.02         446.339 
       0.550082         1297.86         419.634 
       0.565732            1272         395.248 
       0.581496         1223.04         372.645 
       0.597222         1184.04         351.859 
       0.612804         1169.74         332.833 
       0.628434         1134.11         315.168 
       0.644267         1109.42         298.585 
       0.660051         1090.73         283.246 
       0.675724         1077.89         269.083 
       0.691403         1050.68         255.887 
       0.707174         1012.73          243.51 
       0.722871         984.119         232.007 
        0.73838         975.222         221.374 
       0.754018         951.729         211.331 
       0.769845         939.291         201.802 
        0.78569         925.859         192.854 
       0.801365         898.606         184.538 
       0.817031         885.023         176.719 
       0.832809         867.954         169.304 
       0.848511         852.522         162.349 
       0.864097         827.887         155.833 
       0.879701         811.278          149.67 
       0.895507         803.406         143.769 
       0.911279         796.775         138.199 
        0.92691         771.304         132.972 
       0.942635         751.309         127.987 
       0.958396         746.892         123.248 
       0.974128          731.56         118.759 
       0.989692         719.339         114.539 
        1.00528         698.038         110.518 
        1.02113         697.699         106.629 
        1.03692         680.813         102.942 
        1.05264          670.66         99.4475 
        1.06832         658.764         96.1213 
        1.08405          643.43         92.9391 
        1.09979           631.2         89.8998 
        1.11537         622.038         87.0271 
        1.13105         613.064         84.2634 
        1.14679         600.535         81.6095 
        1.16256         592.321         79.0653 
        1.17828         583.588         76.6383 
        1.19395         573.713         74.3218 
         1.2097         558.546         72.0896 
        1.22537         550.556         69.9602 
          1.241         541.131         67.9236 
        1.25666         539.641         65.9633 
        1.27241         525.874         64.0714 
        1.28819         512.842         62.2508 
        1.30392          509.47         60.5065 
        1.31957         496.101         58.8369 
        1.33529         488.747         57.2245 
        1.35108          480.76         55.6663 
        1.36674         471.902         54.1775 
         1.3824          467.19         52.7446 
        1.39811         455.086          51.359 
        1.41389         451.007          50.018 
        1.42964         445.675         48.7273 
        1.44531         438.867         47.4886 
        1.46101         431.756         46.2905 
        1.47667         421.227         45.1373 
        1.49229         417.191         44.0267 
        1.50793         406.252         42.9523 
        1.52367         403.381         41.9069 
        1.53953         391.675         40.8894 
        1.55526          391.74         39.9139 
        1.57092         385.949         38.9743 
        1.58662         378.207         38.0629 
        1.60235         373.791         37.1789 
        1.61809         369.002         36.3226 
        1.63369         359.906         35.5009 
        1.64941         354.122         34.6989 
        1.66519         349.052         33.9188 
        1.68085         346.457         33.1683 
        1.69652         342.512         32.4403 
        1.71228         334.682         31.7301 
        1.72806         332.601         31.0406 
        1.74368         325.465         30.3786 
        1.75933         319.985         29.7347 
        1.77505         315.439         29.1064 
        1.79081         311.439         28.4952 
         1.8065         306.801         27.9042 
        1.82218         303.999         27.3305 
        1.83797         298.262          26.769 
        1.85367         292.525         26.2265 
        1.86928         289.243         25.7022 
        1.88497         285.306         25.1895 
        1.90073         281.036         24.6889 
        1.91647         277.031         24.2024 
        1.93218         272.659           23.73 
        1.94787         269.712          23.271 
        1.96363         266.125         22.8223 
        1.97935         261.153         22.3863 
        1.99499         257.301         21.9643 
        2.01064         254.383         21.5525 
         2.0264         250.293         21.1487 
        2.04216         247.351         20.7555 
        2.05781         244.583         20.3748 
        2.07353         239.739         20.0023 
        2.08928          237.57         19.6382 
        2.10499         233.716         19.2843 
        2.12065         229.609         18.9401 
        2.13633         227.539         18.6041 
        2.15211         224.614          18.274 
        2.16785         222.595         17.9529 
        2.18349         219.188         17.6415 
        2.19916         215.306         17.3369 
        2.21489         213.967         17.0385 
        2.23063          210.88         16.7469 
         2.2463         207.684         16.4634 
        2.26194         204.583         16.1872 
        2.27765         201.369          15.916 
        2.29341         199.495         15.6502 
        2.30914         196.718         15.3911 
        2.32486          194.33          15.138 
        2.34061         191.211         14.8902 
        2.35635         190.394         14.6481 
        2.37203          187.39         14.4123 
        2.38768         184.015         14.1822 
        2.40339         182.464         13.9562 
        2.41914          179.79         13.7347 
        2.43483          178.27         13.5187 
         2.4505         174.879         13.3078 
        2.46622         174.519         13.1007 
        2.48195         171.524         12.8979 
        2.49759         169.198         12.7005 
        2.51328         166.669         12.5068 
        2.52906         164.854         12.3158 
        2.54479         163.284         12.1296 
        2.56049         161.419         11.9476 
        2.57618          159.61         11.7695 
        2.59189         157.671         11.5947 
        2.60758         155.295         11.4238 
        2.62325          153.74         11.2565 
        2.63898         151.428          11.092 
        2.65468         150.724         10.9311 
        2.67044          148.88         10.7727 
        2.68618         147.152         10.6179 
        2.70184          145.31         10.4667 
        2.71755         143.852         10.3181 
        2.73329         141.403         10.1721 
        2.74897         140.245         10.0294 
        2.76462         138.684         9.88981 
        2.78034         137.242         9.75228 
        2.79607         135.266         9.61723 
        2.81179         133.821         9.48488 
        2.82749         132.794         9.35518 
        2.84321         130.592         9.22775 
        2.85893         129.033         9.10275 
        2.87462         127.653         8.98026 
        2.89033         126.219         8.85993 
        2.90605         126.225         8.74169 
        2.92176         123.421         8.62568 
        2.93747         122.514         8.51183 
        2.95318         121.138         8.40001 
        2.96891         119.856         8.29015 
        2.98456         118.447         8.18274 
        3.00023          117.27         8.07708 
        3.01596         115.898         7.97295 
        3.03164         114.892         7.87096 
        3.04738         113.351         7.77046 
         3.0631         111.962         7.67175 
        3.07883         111.426         7.57474 
        3.09456         109.845         7.47943 
        3.11026          108.62         7.38591 
        3.12596         107.539           7.294 
        3.14163         105.981         7.20386 
        3.15734         105.614         7.11504 
        3.17308         104.289          7.0275 
        3.18879         102.738         6.94167 
        3.20447         102.088          6.8574 
         3.2202         100.783         6.77427 
         3.2359         100.127         6.69267 
        3.25157         99.0421          6.6126 
        3.26729          98.104          6.5336 
        3.28304         96.7453         6.45574 
        3.29877         96.0033         6.37925 
        3.31446         94.8566         6.30417 
        3.33014         94.5176         6.23036 
        3.34585         92.9959         6.15762 
        3.36158          92.088         6.08593 
        3.37727         91.0736          6.0156 
        3.39294          90.142         5.94646 
        3.40867         89.3596         5.87815 
        3.42439         88.3469         5.81095 
        3.44008         87.7033         5.74493 
        3.45578         86.7027         5.67989 
        3.47153         85.7176         5.61572 
        3.48724         84.8617         5.55265 
        3.50292         84.1589         5.49069 
        3.51859         83.0325         5.42971 
        3.53431         82.2871         5.36946 
        3.55007         81.6722         5.30999 
        3.56577         80.7082         5.25164 
        3.58146         80.1538          5.1942 
        3.59719         79.2247         5.13749 
        3.61292          78.319         5.08164 
        3.62859         77.9213         5.02683 
        3.64429         77.0762         4.97273 
        3.66003          76.238         4.91925 
        3.67578         75.2342         4.86659 
        3.69146         74.8319         4.81489 
        3.70712         74.0656         4.76403 
        3.72284         73.3589         4.71373 
        3.73853         72.8359         4.66423 
        3.75422         72.0991         4.61543 
        3.76993         71.2724         4.56729 
        3.78564         70.2655         4.51985 
        3.80137         69.8406         4.47301 
        3.81707         69.2245         4.42692 
        3.83279          68.579         4.38146 
        3.84853         68.3022         4.33655 
        3.86424         67.4194         4.29237 
        3.87992         66.7346         4.24886 
        3.89561         66.1993         4.20595 
        3.91134         65.4542         4.16355 
        3.92704         65.0289         4.12179 
        3.94273         64.5937         4.08063 
        3.95845         63.9107         4.03997 
        3.97418         63.1326         3.99985 
        3.98988         62.7388         3.96033 
        4.00554         61.9998         3.92145 
        4.02125         61.4932         3.88298 
        4.03698         61.0645         3.84496 
        4.05268         60.2735         3.80755 
        4.06839         60.0108          3.7706 
         4.0841          59.298         3.73415 
        4.09983         58.9411         3.69814 
        4.11555         58.2979         3.66261 
        4.13124         57.6773         3.62765 
        4.14693         57.2891         3.59311 
        4.16266         56.8106         3.55895 
        4.17839         56.3674         3.52524 
        4.19408         55.7448         3.49206 
        4.20977         55.3905         3.45928 
        4.22551         54.6889         3.42685 
        4.24123         54.1753         3.39486 
        4.25691         53.6559         3.36337 
        4.27259         53.4029         3.33227 
        4.28831          52.926          3.3015 
        4.30404          52.341         3.27109 
        4.31974         52.0467         3.24113 
        4.33543         51.4991         3.21156 
        4.35116         51.0509         3.18229 
        4.36688         50.5796         3.15339 
        4.38255         50.1816         3.12496 
        4.39825         49.7645         3.09682 
        4.41398         49.4315         3.06897 
         4.4297         48.9784          3.0415 
        4.44541         48.5029         3.01436 
        4.46111         48.0109         2.98757 
        4.47683         47.7642          2.9611 
        4.49251         47.3682         2.93499 
        4.50819         46.8304         2.90921 
         4.5239         46.5583          2.8837 
        4.53962          46.073         2.85846 
        4.55535         45.7601         2.83351 
        4.57106         45.3432          2.8089 
        4.58678         44.9055         2.78457 
         4.6025         44.5661         2.76053 
        4.61821         44.1939         2.73677 
        4.63391         43.7861         2.71333 
         4.6496         43.3558         2.69017 
        4.66532         43.0522         2.66724 
        4.68103          42.799         2.64459 
        4.69673         42.3818         2.62222 
        4.71241          42.045         2.60014 
        4.72811         41.6502         2.57827 
        4.74384         41.3135         2.55663 
        4.75955         41.0163         2.53526 
        4.77525         40.7683         2.51416 
        4.79096         40.3673         2.49327 
        4.80669         40.0112          2.4726 
         4.8224         39.7311         2.45219 
        4.83809         39.4387         2.43204 
        4.85379         39.0683          2.4121 
         4.8695         38.7947         2.39236 
        4.88521         38.3923         2.37286 
        4.90093         38.0945         2.35357 
        4.91663         37.7128         2.33451 
        4.93234         37.4972         2.31564 
        4.94807         37.2801         2.29697 
        4.96377         36.8722         2.27854 
        4.97943         36.6631         2.26035 
        4.99514         36.2489         2.24231 
        5.01086         36.0557         2.22445 
        5.02654         35.7961         2.20684 
        5.04227         35.4746         2.18936 
          5.058         35.1028         2.17206 
        5.07371         34.9611         2.15499 
        5.08942         34.6077         2.13809 
        5.10513         34.3837         2.12138 
        5.12084         34.0426         2.10483 
        5.13656         33.9043         2.08847 
        5.15225         33.5637         2.07231 
        5.16796         33.3555         2.05629 
        5.18369          33.068         2.04042 
         5.1994         32.7878         2.02476 
        5.21509         32.5599         2.00927 
        5.23079          32.289         1.99392 
        5.24649         32.0653         1.97875 
        5.26217         31.7821         1.96374 
        5.27788         31.5914         1.94887 
        5.29359         31.2763         1.93415 
        5.30933         31.0813         1.91957 
        5.32504         30.8817         1.90515 
        5.34073          30.577          1.8909 
        5.35646         30.3606         1.87677 
        5.37218         30.0834         1.86278 
        5.38789         29.9213         1.84895 
        5.40357         29.6469         1.83528 
        5.41929         29.4738         1.82172 
        5.43502         29.2258         1.80829 
         5.4507         29.0307         1.79503 
        5.46639         28.7805         1.78191 
        5.48212         28.5868         1.76888 
        5.49786         28.3528         1.75597 
        5.51353         28.1689         1.74325 
        5.52921         27.9304         1.73064 
        5.54495         27.7727         1.71812 
        5.56066         27.4956         1.70574 
        5.57637         27.3343         1.69348 
        5.59207         27.1254         1.68135 
        5.60778         26.9445         1.66934 
        5.62346         26.7196         1.65746 
        5.63916         26.5361         1.64568 
        5.65487         26.3218         1.63402 
         5.6706         26.1873         1.62245 
        5.68633         25.8235         1.61099 
        5.70203         25.7112         1.59967 
        5.71773         25.5841         1.58845 
        5.73344         25.4104         1.57734 
        5.74916         25.2085         1.56632 
        5.76486         25.0304         1.55543 
        5.78054         24.8397         1.54465 
        5.79626          24.621         1.53394 
          5.812         24.4556         1.52333 
         5.8277         24.2809         1.51285 
        5.84339         24.0751         1.50246 
        5.85911         23.9489         1.49216 
        5.87484         23.7386         1.48195 
        5.89053         23.6224         1.47186 
        5.90623         23.4179         1.46186 
        5.92195         23.2839         1.45193 
        5.93767         23.1126          1.4421 
        5.95336         22.9021         1.43238 
        5.96905         22.7465         1.42275 
        5.98476         22.5521         1.41319 
        6.00048         22.3823         1.40372 
        6.01617         22.2519         1.39435 
        6.03185         22.0848         1.38508 
        6.04756         21.9784         1.37587 
        6.06331         21.7773         1.36672 
        6.07903         21.6456         1.35767 
        6.09473         21.4617         1.34872 
        6.11044         21.2726         1.33984 
        6.12616         21.2039         1.33104 
        6.14186         21.0219         1.32232 
        6.15755         20.8614         1.31369 
        6.17326         20.7216         1.30513 
        6.18898         20.5914         1.29663 
        6.20467          20.389         1.28823 
        6.22036         20.2952         1.27991 
         6.2361         20.1444         1.27163 
         6.2518         19.9945         1.26344 
        6.26748         19.8553         1.25534 
        6.28319         19.7414         1.24729 
        6.29893         19.6161         1.23931 
        6.31463         19.4519         1.23141 
        6.33033         19.3041         1.22357 
        6.34604         19.1606          1.2158 
        6.36177         19.0374          1.2081 
        6.37747         18.9002         1.20047 
