# k  (h/Mpc)    Pcb(k)  (Mpc/h)^3    Pcb_linear(k) (Mpc/h)^3   ShotnoiseSubtracted = true
      0.0200456         3525.28         3575.41 
      0.0350414         2760.51         2803.48 
      0.0492313         2212.46         2221.22 
      0.0637834         1829.07         1806.21 
      0.0800726         1391.04         1364.42 
       0.096163         1058.21          1073.2 
       0.111083         884.182         908.462 
       0.126058         763.365         755.191 
       0.142273         633.033         614.527 
       0.158546         541.711         523.505 
        0.17375         454.917         455.467 
       0.188953          410.12         391.563 
       0.204907          374.91         338.954 
       0.220756         322.442         299.581 
        0.23588         285.502         266.093 
         0.2514         250.152          235.78 
       0.267535         231.351         210.275 
       0.283568         210.694         188.951 
       0.299022         193.967         170.628 
       0.314451         174.594         154.701 
       0.330372         161.774         140.661 
       0.346141         146.845         128.407 
       0.361624         138.019         117.688 
       0.377134         130.108         108.207 
       0.392932         116.667         99.6645 
       0.408854         112.268         91.9618 
       0.424564         107.198         85.1393 
       0.440253         99.2698         79.0325 
       0.455999          93.763         73.5109 
       0.471626         87.0027         68.5448 
        0.48727         84.1142         64.0316 
       0.502856         79.5234         59.9418 
       0.518488         76.4525         56.1988 
       0.534347         73.3778         52.7266 
       0.550082         67.5386         49.5719 
       0.565732         63.9032         46.6911 
       0.581496         62.0666          44.021 
       0.597222         60.0766         41.5655 
       0.612804         56.5024          39.318 
       0.628434         54.8965         37.2312 
       0.644267         53.4111         35.2722 
       0.660051         51.1683         33.4602 
       0.675724         48.7624         31.7871 
       0.691403         47.2723         30.2283 
       0.707174         45.9507         28.7662 
       0.722871         44.1613         27.4073 
        0.73838         42.8917         26.1512 
       0.754018         41.0094         24.9647 
       0.769845         39.9632         23.8392 
        0.78569         38.8183         22.7821 
       0.801365         37.4173         21.7997 
       0.817031         36.5804          20.876 
       0.832809         35.8978         20.0001 
       0.848511         33.8489         19.1784 
       0.864097         33.2414         18.4088 
       0.879701         32.5971         17.6807 
       0.895507         31.9668         16.9836 
       0.911279         30.9529         16.3256 
        0.92691         30.1855         15.7081 
       0.942635         29.1154         15.1192 
       0.958396         28.6856         14.5594 
       0.974128         27.8126         14.0291 
       0.989692         27.5419         13.5306 
        1.00528         26.8856         13.0557 
        1.02113         25.8719         12.5962 
        1.03692         25.3925         12.1607 
        1.05264         24.8842         11.7478 
        1.06832         24.3626         11.3549 
        1.08405         23.7809          10.979 
        1.09979         23.2855           10.62 
        1.11537         22.8016         10.2806 
        1.13105         22.5015         9.95413 
        1.14679          22.191         9.64062 
        1.16256         21.4221         9.34007 
        1.17828         21.3601         9.05337 
        1.19395         20.6408         8.77972 
         1.2097         20.4798         8.51603 
        1.22537         19.9772         8.26448 
          1.241         19.6765          8.0239 
        1.25666         19.1762         7.79232 
        1.27241         18.8537         7.56883 
        1.28819         18.4786         7.35376 
        1.30392         18.3332          7.1477 
        1.31957         18.0866         6.95048 
        1.33529           17.78            6.76 
        1.35108         17.3553         6.57593 
        1.36674         17.1617         6.40005 
         1.3824         16.7893         6.23079 
        1.39811         16.5353          6.0671 
        1.41389         16.3767         5.90869 
        1.42964         16.1562         5.75622 
        1.44531         15.9647         5.60989 
        1.46101         15.5376         5.46835 
        1.47667         15.3559         5.33212 
        1.49229         15.1805         5.20092 
        1.50793         14.9388           5.074 
        1.52367         14.7339         4.95051 
        1.53953         14.5467         4.83031 
        1.55526         14.3194         4.71508 
        1.57092         14.1297         4.60408 
        1.58662         13.9544         4.49641 
        1.60235          13.741         4.39198 
        1.61809         13.5914         4.29083 
        1.63369         13.3895         4.19377 
        1.64941         13.1708         4.09902 
        1.66519          13.077         4.00686 
        1.68085         12.8768         3.91821 
        1.69652         12.6872         3.83221 
        1.71228          12.517         3.74831 
        1.72806         12.4622         3.66687 
        1.74368         12.2401         3.58866 
        1.75933         12.0954         3.51259 
        1.77505         11.9514         3.43837 
        1.79081         11.7583         3.36617 
         1.8065         11.6861         3.29635 
        1.82218         11.4693         3.22858 
        1.83797         11.3915         3.16226 
        1.85367          11.217         3.09816 
        1.86928         11.2099         3.03624 
        1.88497         10.9521         2.97567 
        1.90073         10.9032         2.91653 
        1.91647          10.815         2.85905 
        1.93218         10.6986         2.80325 
        1.94787         10.5229         2.74903 
        1.96363         10.4546         2.69602 
        1.97935         10.2916         2.64452 
        1.99499         10.1538         2.59467 
        2.01064         10.0533         2.54602 
         2.0264         9.95188         2.49832 
        2.04216         9.85883         2.45187 
        2.05781         9.71572          2.4069 
        2.07353         9.65716         2.36289 
        2.08928         9.57014         2.31989 
        2.10499         9.50413         2.27807 
        2.12065         9.34743         2.23742 
        2.13633          9.3168         2.19772 
        2.15211         9.17622         2.15873 
        2.16785         9.09829          2.1208 
        2.18349         9.02994         2.08402 
        2.19916          8.9337         2.04803 
        2.21489         8.82464         2.01277 
        2.23063          8.7483         1.97833 
         2.2463         8.63259         1.94484 
        2.26194         8.54835         1.91221 
        2.27765         8.51836         1.88017 
        2.29341         8.41088         1.84878 
        2.30914         8.31146         1.81817 
        2.32486         8.22109         1.78827 
        2.34061         8.15967         1.75899 
        2.35635         8.12836          1.7304 
        2.37203         8.02003         1.70254 
        2.38768          7.9217         1.67536 
        2.40339         7.87079         1.64866 
        2.41914         7.75157         1.62249 
        2.43483         7.74022         1.59698 
         2.4505         7.66859         1.57207 
        2.46622         7.59512          1.5476 
        2.48195         7.50466         1.52364 
        2.49759         7.47686         1.50033 
        2.51328         7.37927         1.47744 
        2.52906         7.35213         1.45488 
        2.54479         7.26032         1.43288 
        2.56049         7.20532         1.41138 
        2.57618         7.15893         1.39034 
        2.59189         7.06096          1.3697 
        2.60758         7.03392          1.3495 
        2.62325         6.95402         1.32974 
        2.63898         6.86835         1.31031 
        2.65468         6.82147         1.29131 
        2.67044         6.76258          1.2726 
        2.68618         6.72793          1.2543 
        2.70184         6.65648         1.23644 
        2.71755         6.58996         1.21888 
        2.73329          6.5558         1.20164 
        2.74897         6.50794         1.18479 
        2.76462          6.4638          1.1683 
        2.78034          6.3865         1.15205 
        2.79607         6.34013         1.13609 
        2.81179         6.30353         1.12046 
        2.82749         6.22905         1.10514 
        2.84321         6.23399         1.09009 
        2.85893         6.16114         1.07532 
        2.87462         6.08883         1.06085 
        2.89033          6.0396         1.04663 
        2.90605         5.99077         1.03267 
        2.92176         5.93342         1.01896 
        2.93747         5.89746         1.00551 
        2.95318         5.87005        0.992303 
        2.96891         5.80978        0.979325 
        2.98456         5.76916        0.966636 
        3.00023         5.70604        0.954155 
        3.01596         5.67408        0.941854 
        3.03164         5.64595        0.929806 
        3.04738         5.60348        0.917934 
         3.0631         5.55002        0.906272 
        3.07883         5.51122        0.894813 
        3.09456         5.46596        0.883554 
        3.11026         5.44516        0.872506 
        3.12596         5.38876        0.861648 
        3.14163         5.33797           0.851 
        3.15734          5.2996        0.840507 
        3.17308         5.27099        0.830166 
        3.18879          5.2199        0.820028 
        3.20447         5.19732        0.810073 
         3.2202         5.14099        0.800253 
         3.2359         5.11951        0.790613 
        3.25157         5.06464        0.781154 
        3.26729         5.05148        0.771822 
        3.28304         5.00346        0.762624 
        3.29877         4.96261        0.753588 
        3.31446         4.91944        0.744718 
        3.33014         4.90179        0.735999 
        3.34585         4.86065        0.727406 
        3.36158         4.84371        0.718938 
        3.37727         4.80349         0.71063 
        3.39294         4.77097        0.702462 
        3.40867         4.72611        0.694393 
        3.42439         4.69231        0.686454 
        3.44008         4.66438        0.678656 
        3.45578         4.62765        0.670972 
        3.47153         4.59196        0.663391 
        3.48724         4.57269         0.65594 
        3.50292          4.5395        0.648621 
        3.51859         4.50046        0.641418 
        3.53431         4.45755        0.634301 
        3.55007         4.45089        0.627275 
        3.56577         4.42744        0.620383 
        3.58146         4.39312        0.613597 
        3.59719         4.36111        0.606897 
        3.61292         4.33362          0.6003 
        3.62859         4.29244        0.593825 
        3.64429         4.26574        0.587434 
        3.66003         4.24472        0.581117 
        3.67578         4.21045        0.574895 
        3.69146         4.17179        0.568788 
        3.70712         4.15236        0.562781 
        3.72284         4.12589        0.556838 
        3.73853         4.10673        0.550991 
        3.75422         4.07247        0.545226 
        3.76993         4.03788        0.539539 
        3.78564         4.02036        0.533935 
        3.80137         3.99401        0.528401 
        3.81707         3.96232        0.522958 
        3.83279          3.9449        0.517586 
        3.84853         3.90173        0.512282 
        3.86424         3.88641        0.507062 
        3.87992         3.86439        0.501923 
        3.89561         3.83671        0.496854 
        3.91134         3.80938        0.491845 
        3.92704          3.7852        0.486911 
        3.94273         3.76116         0.48205 
        3.95845         3.74563        0.477246 
        3.97418         3.71002        0.472507 
        3.98988         3.69202        0.467838 
        4.00554         3.66364        0.463245 
        4.02125         3.63025        0.458701 
        4.03698         3.60478         0.45421 
        4.05268         3.58324         0.44979 
        4.06839         3.57118        0.445425 
         4.0841          3.5368         0.44112 
        4.09983         3.50715        0.436865 
        4.11555         3.49054        0.432668 
        4.13124         3.46641        0.428538 
        4.14693         3.44227        0.424458 
        4.16266         3.42384        0.420422 
        4.17839          3.4058        0.416441 
        4.19408         3.36985        0.412521 
        4.20977          3.3511        0.408649 
        4.22551         3.33004        0.404817 
        4.24123         3.30587        0.401039 
        4.25691         3.28532        0.397319 
        4.27259         3.27117        0.393645 
        4.28831         3.24408         0.39001 
        4.30404         3.22021        0.386418 
        4.31974         3.20497        0.382878 
        4.33543         3.18234        0.379385 
        4.35116          3.1585        0.375928 
        4.36688         3.14817        0.372514 
        4.38255         3.11838        0.369156 
        4.39825         3.11068        0.365831 
        4.41398         3.09195        0.362541 
         4.4297         3.07243        0.359295 
        4.44541         3.05063         0.35609 
        4.46111         3.02848        0.352926 
        4.47683         3.00805        0.349798 
        4.49251         2.99132        0.346714 
        4.50819         2.97081        0.343668 
         4.5239         2.95797        0.340654 
        4.53962         2.94024        0.337673 
        4.55535         2.92107        0.334726 
        4.57106         2.90599        0.331819 
        4.58678         2.88418        0.328945 
         4.6025         2.86602        0.326105 
        4.61821          2.8563        0.323298 
        4.63391         2.83787        0.320529 
         4.6496         2.82026        0.317792 
        4.66532         2.78817        0.315084 
        4.68103         2.78105        0.312408 
        4.69673         2.76578        0.309766 
        4.71241         2.74521        0.307157 
        4.72811         2.73159        0.304574 
        4.74384          2.7208        0.302017 
        4.75955         2.70484        0.299494 
        4.77525          2.6909           0.297 
        4.79096         2.66548        0.294532 
        4.80669         2.65887        0.292091 
         4.8224         2.64729        0.289681 
        4.83809          2.6324          0.2873 
        4.85379         2.61271        0.284944 
         4.8695         2.60078        0.282613 
        4.88521         2.58458        0.280309 
        4.90093         2.56157         0.27803 
        4.91663         2.55125        0.275778 
        4.93234         2.53851        0.273549 
        4.94807         2.52245        0.271344 
        4.96377         2.50508        0.269166 
        4.97943         2.49523        0.267017 
        4.99514         2.47679        0.264886 
        5.01086         2.46033        0.262777 
        5.02654         2.45465        0.260696 
        5.04227         2.43993        0.258632 
          5.058         2.42558        0.256588 
        5.07371         2.41183        0.254571 
        5.08942          2.4013        0.252576 
        5.10513         2.38562        0.250601 
        5.12084         2.37911        0.248646 
        5.13656         2.35814        0.246713 
        5.15225         2.34573        0.244804 
        5.16796         2.32733        0.242912 
        5.18369          2.3205        0.241038 
         5.1994         2.31019        0.239187 
        5.21509          2.2961        0.237357 
        5.23079         2.28264        0.235544 
        5.24649         2.27049        0.233752 
        5.26217         2.26157        0.231979 
        5.27788         2.24216        0.230223 
        5.29359         2.23519        0.228484 
        5.30933         2.22401        0.226761 
        5.32504         2.20872        0.225058 
        5.34073         2.19857        0.223374 
        5.35646          2.1856        0.221705 
        5.37218         2.17704        0.220052 
        5.38789          2.1659        0.218419 
        5.40357         2.15359        0.216804 
        5.41929          2.1435        0.215202 
        5.43502         2.13346        0.213616 
         5.4507         2.11977        0.212049 
        5.46639         2.11266        0.210499 
        5.48212         2.10019         0.20896 
        5.49786         2.09571        0.207434 
        5.51353         2.07515        0.205932 
        5.52921         2.06524        0.204442 
        5.54495         2.05978        0.202963 
        5.56066         2.04827        0.201501 
        5.57637         2.04128        0.200053 
        5.59207         2.02708         0.19862 
        5.60778         2.02031        0.197201 
        5.62346         2.00828        0.195798 
        5.63916         1.99636        0.194407 
        5.65487         1.98576        0.193028 
         5.6706         1.97984        0.191662 
        5.68633         1.96712        0.190308 
        5.70203         1.96196         0.18897 
        5.71773         1.95156        0.187646 
        5.73344         1.93804        0.186333 
        5.74916         1.92989        0.185031 
        5.76486          1.9221        0.183744 
        5.78054         1.91077        0.182471 
        5.79626         1.90571        0.181207 
          5.812         1.89366        0.179953 
         5.8277         1.88223        0.178715 
        5.84339         1.87654        0.177488 
        5.85911         1.86634         0.17627 
        5.87484         1.85754        0.175065 
        5.89053         1.84908        0.173872 
        5.90623         1.83957        0.172691 
        5.92195         1.83139        0.171518 
        5.93767         1.82485        0.170357 
        5.95336         1.81542        0.169208 
        5.96905         1.80536        0.168071 
        5.98476         1.79769        0.166942 
        6.00048          1.7869        0.165823 
        6.01617         1.78237        0.164716 
        6.03185         1.77347        0.163621 
        6.04756         1.76555        0.162533 
        6.06331         1.75666        0.161452 
        6.07903         1.75033        0.160384 
        6.09473         1.74377        0.159326 
        6.11044         1.73172        0.158277 
        6.12616         1.72573        0.157237 
        6.14186         1.71709        0.156208 
        6.15755         1.71081        0.155188 
        6.17326         1.70222        0.154176 
        6.18898         1.69658        0.153173 
        6.20467         1.68754         0.15218 
        6.22036         1.68015        0.151197 
         6.2361         1.67182        0.150219 
         6.2518         1.66514        0.149252 
        6.26748         1.65765        0.148295 
        6.28319         1.65028        0.147344 
        6.29893         1.64685        0.146401 
        6.31463         1.63642        0.145467 
        6.33033         1.62903        0.144542 
        6.34604         1.62225        0.143624 
        6.36177         1.61465        0.142714 
        6.37747         1.60791        0.141813 
