# k  (h/Mpc)    Pcb(k)  (Mpc/h)^3    Pcb_linear(k) (Mpc/h)^3   ShotnoiseSubtracted = true
      0.0200456         8238.56         8378.36 
      0.0350414         6393.77         6569.49 
      0.0492313         5146.31         5205.06 
      0.0637834         4297.29         4232.54 
      0.0800726         3267.53         3197.28 
       0.096163         2450.46         2514.86 
       0.111083         2042.89         2128.83 
       0.126058         1791.24         1769.66 
       0.142273         1498.27         1440.04 
       0.158546         1307.72         1226.75 
        0.17375         1077.92         1067.31 
       0.188953         1002.68         917.561 
       0.204907         931.346         794.281 
       0.220756         804.687         702.018 
        0.23588         712.364         623.544 
         0.2514         620.413          552.51 
       0.267535         595.241         492.745 
       0.283568         543.445         442.774 
       0.299022          506.37         399.837 
       0.314451         471.047         362.516 
       0.330372         435.107         329.615 
       0.346141         395.162           300.9 
       0.361624         377.739         275.781 
       0.377134         353.906         253.566 
       0.392932         331.849         233.547 
       0.408854          318.23         215.497 
       0.424564         304.729         199.509 
       0.440253          291.04         185.199 
       0.455999         274.541          172.26 
       0.471626         253.706         160.623 
        0.48727         247.864         150.047 
       0.502856         238.765         140.463 
       0.518488         234.962         131.692 
       0.534347         222.281         123.556 
       0.550082          207.77         116.163 
       0.565732         203.382         109.413 
       0.581496         193.723         103.156 
       0.597222         188.533         97.4016 
       0.612804         180.781         92.1349 
       0.628434         175.635          87.245 
       0.644267         169.712         82.6545 
       0.660051         167.209         78.4082 
       0.675724         163.229         74.4877 
       0.691403         158.253         70.8348 
       0.707174         151.526         67.4086 
       0.722871         150.011         64.2243 
        0.73838         146.844         61.2809 
       0.754018         141.167         58.5006 
       0.769845         138.169          55.863 
        0.78569         135.426          53.386 
       0.801365         131.712         51.0839 
       0.817031         127.069         48.9193 
       0.832809         125.089         46.8667 
       0.848511         121.823         44.9414 
       0.864097         118.698         43.1378 
       0.879701         117.055         41.4317 
       0.895507         114.216         39.7981 
       0.911279         112.605         38.2563 
        0.92691         110.146         36.8092 
       0.942635         107.557         35.4293 
       0.958396         107.086         34.1175 
       0.974128         104.115         32.8748 
       0.989692         101.341         31.7066 
        1.00528         99.5783         30.5937 
        1.02113         98.2535         29.5171 
        1.03692         95.0079         28.4965 
        1.05264         94.7445         27.5291 
        1.06832         92.3735         26.6083 
        1.08405         91.1347         25.7274 
        1.09979          90.406         24.8861 
        1.11537         87.3206         24.0909 
        1.13105         87.4056         23.3258 
        1.14679          85.971         22.5912 
        1.16256         84.6311         21.8869 
        1.17828         82.1702          21.215 
        1.19395         81.7579         20.5738 
         1.2097         79.3941         19.9559 
        1.22537         79.5921         19.3664 
          1.241         77.4732         18.8026 
        1.25666         76.0918           18.26 
        1.27241         75.3577         17.7363 
        1.28819         74.0078         17.2323 
        1.30392         72.7694         16.7494 
        1.31957         71.8698         16.2873 
        1.33529         70.8303         15.8409 
        1.35108         70.3337         15.4096 
        1.36674         69.2707         14.9974 
         1.3824         67.9687         14.6008 
        1.39811         67.3002         14.2172 
        1.41389         66.1918          13.846 
        1.42964         65.4245         13.4887 
        1.44531         64.2999         13.1458 
        1.46101         63.1752         12.8141 
        1.47667         63.0006         12.4949 
        1.49229         61.9217         12.1875 
        1.50793         61.1509         11.8901 
        1.52367         60.2849         11.6007 
        1.53953         59.6318          11.319 
        1.55526         58.9046          11.049 
        1.57092         58.5452         10.7889 
        1.58662          57.574         10.5366 
        1.60235         56.9537         10.2919 
        1.61809         56.0978         10.0548 
        1.63369         55.0815         9.82738 
        1.64941         54.4987         9.60535 
        1.66519         53.7008         9.38941 
        1.68085         53.1638         9.18165 
        1.69652         52.5181         8.98013 
        1.71228         52.0482         8.78353 
        1.72806         51.5951         8.59268 
        1.74368           50.73         8.40942 
        1.75933         50.2847         8.23115 
        1.77505          49.652         8.05723 
        1.79081         48.9525         7.88804 
         1.8065         48.5211         7.72444 
        1.82218         47.8175         7.56563 
        1.83797         47.2553         7.41021 
        1.85367         46.5799         7.26002 
        1.86928         46.2463          7.1149 
        1.88497         45.6897         6.97297 
        1.90073         45.3084         6.83439 
        1.91647         44.7557         6.69971 
        1.93218         44.1186         6.56895 
        1.94787         43.7171         6.44187 
        1.96363         43.1164         6.31766 
        1.97935         42.7034         6.19699 
        1.99499         42.1196         6.08016 
        2.01064         41.8774         5.96617 
         2.0264         41.1369          5.8544 
        2.04216         40.6435         5.74554 
        2.05781         40.2353         5.64015 
        2.07353         39.7908         5.53703 
        2.08928          39.449         5.43626 
        2.10499         39.0402         5.33828 
        2.12065         38.5765         5.24301 
        2.13633         38.4307         5.14998 
        2.15211           37.74         5.05862 
        2.16785         37.0729         4.96973 
        2.18349         36.9289         4.88354 
        2.19916         36.6111         4.79921 
        2.21489         36.0038         4.71659 
        2.23063         35.7514         4.63587 
         2.2463         35.2894          4.5574 
        2.26194         34.8888         4.48095 
        2.27765         34.4813         4.40586 
        2.29341         34.1625          4.3323 
        2.30914         33.8366         4.26057 
        2.32486         33.3592          4.1905 
        2.34061          33.146          4.1219 
        2.35635         32.7768          4.0549 
        2.37203          32.434         3.98962 
        2.38768         32.0698         3.92591 
        2.40339         31.8729         3.86337 
        2.41914         31.5479         3.80204 
        2.43483          30.979         3.74226 
         2.4505         30.7598         3.68387 
        2.46622         30.5233         3.62653 
        2.48195         30.1843          3.5704 
        2.49759         29.8129         3.51576 
        2.51328         29.5017         3.46213 
        2.52906         29.3431         3.40927 
        2.54479         28.9132         3.35772 
        2.56049         28.6108         3.30733 
        2.57618         28.2623         3.25802 
        2.59189         28.1251         3.20965 
        2.60758         27.8743         3.16233 
        2.62325         27.4097         3.11602 
        2.63898         27.3279         3.07049 
        2.65468         26.9147         3.02595 
        2.67044         26.7055         2.98211 
        2.68618         26.4022         2.93925 
        2.70184         26.1498         2.89739 
        2.71755         25.9758         2.85625 
        2.73329         25.6634         2.81584 
        2.74897         25.3374         2.77635 
        2.76462         25.1575          2.7377 
        2.78034         24.9361         2.69963 
        2.79607         24.6864         2.66224 
        2.81179         24.5027         2.62561 
        2.82749         24.2168          2.5897 
        2.84321         23.8989         2.55443 
        2.85893         23.6673         2.51982 
        2.87462         23.4283         2.48592 
        2.89033         23.2996         2.45261 
        2.90605         23.0855         2.41988 
        2.92176         22.8815         2.38776 
        2.93747         22.6503         2.35625 
        2.95318         22.3105         2.32529 
        2.96891         22.1983         2.29488 
        2.98456         21.8562         2.26515 
        3.00023         21.7631          2.2359 
        3.01596         21.5084         2.20708 
        3.03164         21.2753         2.17884 
        3.04738         21.1553         2.15102 
         3.0631         20.9227         2.12369 
        3.07883         20.7222         2.09684 
        3.09456         20.5484         2.07046 
        3.11026         20.3302         2.04457 
        3.12596         20.1489         2.01913 
        3.14163         20.0187         1.99417 
        3.15734         19.7716         1.96959 
        3.17308         19.6088         1.94535 
        3.18879         19.4155          1.9216 
        3.20447         19.2409         1.89827 
         3.2202         19.0478         1.87526 
         3.2359         18.8267         1.85267 
        3.25157          18.775          1.8305 
        3.26729         18.6222         1.80863 
        3.28304          18.394         1.78708 
        3.29877         18.0784         1.76591 
        3.31446         18.0239         1.74512 
        3.33014         17.8492         1.72469 
        3.34585         17.6141         1.70455 
        3.36158         17.5306         1.68471 
        3.37727         17.3297         1.66524 
        3.39294         17.1187          1.6461 
        3.40867         16.9972         1.62719 
        3.42439         16.8408         1.60859 
        3.44008         16.6512         1.59031 
        3.45578         16.5544         1.57231 
        3.47153          16.408         1.55454 
        3.48724          16.251         1.53708 
        3.50292         16.0978         1.51993 
        3.51859         15.9753         1.50305 
        3.53431         15.8211         1.48638 
        3.55007         15.6707         1.46991 
        3.56577         15.5505         1.45376 
        3.58146         15.4154         1.43786 
        3.59719         15.2418         1.42216 
        3.61292         15.1247          1.4067 
        3.62859          14.952         1.39153 
        3.64429         14.8227         1.37655 
        3.66003          14.717         1.36175 
        3.67578         14.6105         1.34717 
        3.69146         14.4652         1.33286 
        3.70712         14.3263         1.31878 
        3.72284         14.2493         1.30485 
        3.73853         14.0983         1.29115 
        3.75422         13.9145         1.27764 
        3.76993         13.8303         1.26432 
        3.78564         13.7008         1.25119 
        3.80137         13.5775         1.23822 
        3.81707         13.4495         1.22546 
        3.83279         13.2908         1.21288 
        3.84853         13.2195         1.20045 
        3.86424         13.0818         1.18821 
        3.87992         12.9875         1.17617 
        3.89561         12.9076         1.16429 
        3.91134         12.7889         1.15256 
        3.92704         12.6147         1.14099 
        3.94273         12.5504          1.1296 
        3.95845         12.4533         1.11835 
        3.97418         12.3617         1.10724 
        3.98988         12.2418          1.0963 
        4.00554         12.1036         1.08554 
        4.02125           11.98         1.07489 
        4.03698         11.9422         1.06436 
        4.05268         11.7971         1.05401 
        4.06839         11.7163         1.04378 
         4.0841          11.613         1.03369 
        4.09983          11.495         1.02372 
        4.11555          11.393         1.01388 
        4.13124         11.3136         1.00421 
        4.14693         11.2142        0.994646 
        4.16266          11.129        0.985188 
        4.17839         11.0183        0.975859 
        4.19408         10.9342        0.966672 
        4.20977         10.8385        0.957599 
        4.22551         10.7683         0.94862 
        4.24123         10.6616        0.939766 
        4.25691         10.5609         0.93105 
        4.27259         10.4841         0.92244 
        4.28831         10.4089        0.913923 
        4.30404         10.2984        0.905504 
        4.31974         10.2412         0.89721 
        4.33543          10.141        0.889025 
        4.35116         10.0556        0.880922 
        4.36688         9.95821        0.872923 
        4.38255         9.90738        0.865054 
        4.39825         9.83595        0.857264 
        4.41398         9.73125        0.849554 
         4.4297          9.6475        0.841948 
        4.44541         9.54966        0.834436 
        4.46111         9.49195        0.827021 
        4.47683          9.4287        0.819691 
        4.49251         9.34635        0.812465 
        4.50819         9.26924        0.805327 
         4.5239         9.20406        0.798266 
        4.53962         9.14567         0.79128 
        4.55535         9.04981        0.784374 
        4.57106         8.98021        0.777561 
        4.58678         8.89597        0.770826 
         4.6025         8.82946        0.764171 
        4.61821         8.75478        0.757594 
        4.63391         8.67409        0.751104 
         4.6496         8.62858        0.744692 
        4.66532         8.53774        0.738346 
        4.68103         8.48834        0.732076 
        4.69673         8.40659        0.725884 
        4.71241         8.35003        0.719771 
        4.72811         8.28154        0.713717 
        4.74384         8.23162        0.707726 
        4.75955         8.16773        0.701813 
        4.77525         8.10514         0.69597 
        4.79096         8.04296        0.690186 
        4.80669         7.99333        0.684466 
         4.8224         7.92555        0.678817 
        4.83809         7.85337        0.673238 
        4.85379         7.77094        0.667717 
         4.8695           7.744        0.662255 
        4.88521         7.66674        0.656855 
        4.90093          7.6327        0.651515 
        4.91663         7.54751        0.646239 
        4.93234         7.50342        0.641016 
        4.94807         7.43725        0.635848 
        4.96377         7.38979        0.630745 
        4.97943         7.33781         0.62571 
        4.99514         7.28008        0.620716 
        5.01086         7.21509        0.615774 
        5.02654         7.16126        0.610897 
        5.04227          7.1238        0.606059 
          5.058         7.06747        0.601271 
        5.07371         7.01562        0.596544 
        5.08942         6.94318        0.591868 
        5.10513         6.89218        0.587241 
        5.12084         6.86018        0.582661 
        5.13656         6.81077        0.578131 
        5.15225         6.74207        0.573656 
        5.16796         6.70246        0.569222 
        5.18369         6.65568        0.564831 
         5.1994         6.58978        0.560494 
        5.21509         6.54577        0.556206 
        5.23079         6.49133        0.551958 
        5.24649         6.44847        0.547758 
        5.26217         6.40562        0.543604 
        5.27788         6.35339        0.539488 
        5.29359         6.31755        0.535413 
        5.30933         6.28314        0.531375 
        5.32504         6.22516        0.527385 
        5.34073          6.1749         0.52344 
        5.35646         6.13063        0.519528 
        5.37218          6.0778        0.515655 
        5.38789         6.06032        0.511827 
        5.40357         6.01206        0.508043 
        5.41929         5.96061        0.504289 
        5.43502         5.91882        0.500572 
         5.4507         5.87759        0.496902 
        5.46639         5.83584        0.493268 
        5.48212         5.80267        0.489661 
        5.49786         5.76408        0.486087 
        5.51353         5.71345        0.482566 
        5.52921         5.67562        0.479076 
        5.54495         5.62991         0.47561 
        5.56066         5.59459        0.472182 
        5.57637         5.54977        0.468789 
        5.59207         5.51401        0.465432 
        5.60778         5.48058        0.462107 
        5.62346         5.44736        0.458818 
        5.63916         5.39799        0.455559 
        5.65487         5.36683        0.452329 
         5.6706         5.34098        0.449127 
        5.68633         5.29805        0.445955 
        5.70203         5.25293         0.44282 
        5.71773         5.22986        0.439716 
        5.73344         5.18837        0.436639 
        5.74916         5.14625         0.43359 
        5.76486         5.12188        0.430573 
        5.78054         5.09029         0.42759 
        5.79626         5.05661        0.424627 
          5.812         5.01026        0.421689 
         5.8277          4.9788        0.418787 
        5.84339         4.95452        0.415913 
        5.85911         4.90978         0.41306 
        5.87484         4.88351        0.410234 
        5.89053         4.84706         0.40744 
        5.90623         4.82089        0.404671 
        5.92195         4.78371        0.401923 
        5.93767         4.74282        0.399202 
        5.95336         4.72633        0.396511 
        5.96905         4.68748        0.393845 
        5.98476         4.66929          0.3912 
        6.00048         4.62557        0.388579 
        6.01617          4.6017        0.385985 
        6.03185          4.5717        0.383418 
        6.04756         4.54648        0.380868 
        6.06331         4.51738        0.378336 
        6.07903         4.47875        0.375832 
        6.09473          4.4506        0.373353 
        6.11044         4.42338        0.370894 
        6.12616         4.39707        0.368458 
        6.14186         4.36145        0.366046 
        6.15755         4.34532        0.363656 
        6.17326         4.31219        0.361285 
        6.18898         4.28653        0.358934 
        6.20467         4.25942        0.356609 
        6.22036         4.23065        0.354304 
         6.2361         4.20553        0.352013 
         6.2518         4.17276        0.349746 
        6.26748         4.14929        0.347505 
        6.28319         4.12325        0.345276 
        6.29893         4.10413        0.343066 
        6.31463         4.07417        0.340878 
        6.33033         4.05926         0.33871 
        6.34604         4.02488        0.336559 
        6.36177         4.00365        0.334425 
        6.37747         3.98107        0.332314 
