# k  (h/Mpc)    Pcb(k)  (Mpc/h)^3    Pcb_linear(k) (Mpc/h)^3   ShotnoiseSubtracted = true
      0.0200456         25950.1         26622.7 
      0.0350414         19703.9         20874.9 
      0.0492313         15920.9         16539.3 
      0.0637834         13581.1         13449.1 
      0.0800726           10312         10159.5 
       0.096163         7547.52          7991.1 
       0.111083         6353.17         6764.45 
       0.126058          5639.2         5623.19 
       0.142273         4785.21          4575.8 
       0.158546         4439.79         3898.04 
        0.17375         3616.41         3391.43 
       0.188953         3503.96          2915.6 
       0.204907         3283.93         2523.87 
       0.220756          2897.1          2230.7 
        0.23588         2619.81         1981.34 
         0.2514         2304.12         1755.63 
       0.267535         2317.01         1565.72 
       0.283568         2105.05         1406.94 
       0.299022         2011.42          1270.5 
       0.314451         1915.67         1151.91 
       0.330372         1751.11         1047.37 
       0.346141         1737.29         956.126 
       0.361624         1668.38         876.308 
       0.377134         1564.41         805.717 
       0.392932         1502.46         742.107 
       0.408854         1475.76         684.752 
       0.424564         1362.82         633.951 
       0.440253         1335.29          588.48 
       0.455999         1323.49         547.365 
       0.471626         1268.99         510.388 
        0.48727         1226.71         476.783 
       0.502856         1175.56          446.33 
       0.518488         1184.87         418.459 
       0.534347         1107.66         392.604 
       0.550082          1098.6         369.114 
       0.565732         1080.49         347.664 
       0.581496         1034.29         327.783 
       0.597222         1007.51         309.499 
       0.612804         995.185         292.763 
       0.628434         970.309         277.225 
       0.644267         945.651         262.639 
       0.660051         927.018         249.146 
       0.675724         919.606         236.688 
       0.691403         893.817         225.081 
       0.707174         863.746         214.194 
       0.722871          842.78         204.076 
        0.73838         830.438         194.723 
       0.754018         818.378         185.889 
       0.769845         803.639         177.507 
        0.78569         793.106         169.637 
       0.801365         770.723         162.322 
       0.817031         759.059         155.444 
       0.832809         746.834         148.921 
       0.848511         730.875         142.804 
       0.864097         708.796         137.073 
       0.879701         697.873         131.651 
       0.895507         696.111         126.461 
       0.911279         684.758         121.561 
        0.92691         670.947         116.963 
       0.942635         651.362         112.578 
       0.958396         641.215          108.41 
       0.974128         634.142         104.461 
       0.989692         625.103         100.749 
        1.00528         603.916         97.2131 
        1.02113         604.694          93.792 
        1.03692         589.751          90.549 
        1.05264         579.966          87.475 
        1.06832         568.369         84.5493 
        1.08405         560.031         81.7502 
        1.09979         551.975         79.0768 
        1.11537         543.525         76.5499 
        1.13105         536.281         74.1189 
        1.14679         524.136         71.7846 
        1.16256         513.715         69.5466 
        1.17828         510.869         67.4118 
        1.19395         500.905         65.3742 
         1.2097         487.181         63.4108 
        1.22537         481.674         61.5377 
          1.241         472.505         59.7463 
        1.25666         468.762          58.022 
        1.27241         459.144         56.3579 
        1.28819           447.2         54.7564 
        1.30392          444.07         53.2221 
        1.31957         434.295         51.7536 
        1.33529          431.19         50.3353 
        1.35108         421.539         48.9647 
        1.36674         414.855         47.6551 
         1.3824         410.344         46.3947 
        1.39811         401.162         45.1759 
        1.41389         397.428         43.9964 
        1.42964         393.027         42.8611 
        1.44531         389.009         41.7715 
        1.46101         379.322         40.7176 
        1.47667         372.057         39.7033 
        1.49229         369.837         38.7263 
        1.50793         358.186         37.7813 
        1.52367         358.466         36.8617 
        1.53953         348.355         35.9667 
        1.55526          347.71         35.1087 
        1.57092         344.506         34.2822 
        1.58662         337.147         33.4805 
        1.60235         331.579         32.7029 
        1.61809         327.124         31.9497 
        1.63369         321.537          31.227 
        1.64941         315.029         30.5215 
        1.66519         312.604         29.8353 
        1.68085         309.293         29.1752 
        1.69652         304.962         28.5348 
        1.71228          297.02         27.9101 
        1.72806         293.625         27.3037 
        1.74368          288.36         26.7214 
        1.75933         286.105         26.1549 
        1.77505         281.137         25.6023 
        1.79081         278.344         25.0646 
         1.8065         272.751         24.5448 
        1.82218         269.857         24.0402 
        1.83797         267.305         23.5463 
        1.85367         262.753         23.0691 
        1.86928         257.439          22.608 
        1.88497         255.855          22.157 
        1.90073         251.361         21.7166 
        1.91647         248.276         21.2887 
        1.93218         244.546         20.8732 
        1.94787         241.283         20.4694 
        1.96363         238.179         20.0747 
        1.97935         233.914         19.6913 
        1.99499         231.258           19.32 
        2.01064         227.929         18.9578 
         2.0264         225.457         18.6026 
        2.04216         223.626         18.2568 
        2.05781         220.037         17.9219 
        2.07353           216.3         17.5942 
        2.08928         212.425          17.274 
        2.10499         210.239         16.9627 
        2.12065         207.722         16.6599 
        2.13633         205.477         16.3643 
        2.15211         202.399          16.074 
        2.16785         200.585         15.7916 
        2.18349         197.884         15.5177 
        2.19916         194.367         15.2497 
        2.21489         192.971         14.9872 
        2.23063         189.928         14.7307 
         2.2463          186.56         14.4814 
        2.26194         184.762         14.2384 
        2.27765         181.407         13.9998 
        2.29341         179.503         13.7661 
        2.30914         176.959         13.5382 
        2.32486         176.186         13.3155 
        2.34061         172.064         13.0976 
        2.35635         171.458         12.8846 
        2.37203         168.742         12.6772 
        2.38768         166.038         12.4748 
        2.40339         164.652          12.276 
        2.41914         162.997         12.0812 
        2.43483         160.561         11.8912 
         2.4505         158.879         11.7057 
        2.46622         156.868         11.5235 
        2.48195         154.743         11.3451 
        2.49759         153.662         11.1715 
        2.51328         151.535         11.0011 
        2.52906         149.699         10.8331 
        2.54479          148.19         10.6693 
        2.56049         145.967         10.5092 
        2.57618         144.823         10.3525 
        2.59189         142.658         10.1988 
        2.60758         140.578         10.0485 
        2.62325         139.192         9.90132 
        2.63898         137.635         9.75662 
        2.65468         136.311         9.61512 
        2.67044         134.825         9.47582 
        2.68618          133.28          9.3396 
        2.70184         131.405         9.20661 
        2.71755         130.095         9.07587 
        2.73329         128.009         8.94748 
        2.74897         127.154         8.82199 
        2.76462         125.693         8.69918 
        2.78034         124.416         8.57821 
        2.79607         122.825         8.45941 
        2.81179         122.022           8.343 
        2.82749         120.403         8.22891 
        2.84321         118.239         8.11683 
        2.85893         117.185         8.00687 
        2.87462         115.953         7.89913 
        2.89033         114.412         7.79328 
        2.90605         113.687         7.68928 
        2.92176         111.928         7.58723 
        2.93747         110.716         7.48709 
        2.95318          110.02         7.38873 
        2.96891         108.549          7.2921 
        2.98456         107.337         7.19762 
        3.00023         106.622         7.10468 
        3.01596         105.099         7.01309 
        3.03164         104.024         6.92338 
        3.04738         103.106         6.83498 
         3.0631         101.822         6.74815 
        3.07883         100.533         6.66282 
        3.09456         99.3089         6.57899 
        3.11026         99.1631         6.49672 
        3.12596         97.5877         6.41587 
        3.14163         96.4365         6.33659 
        3.15734         95.5782         6.25846 
        3.17308         94.6987         6.18146 
        3.18879         93.2946         6.10596 
        3.20447         92.4684         6.03184 
         3.2202         91.4805         5.95872 
         3.2359         90.6902         5.88694 
        3.25157         89.5942         5.81651 
        3.26729         88.6315         5.74702 
        3.28304         87.9883         5.67854 
        3.29877         87.0288         5.61125 
        3.31446         85.9899         5.54521 
        3.33014         85.3916         5.48029 
        3.34585         84.4913          5.4163 
        3.36158          83.522         5.35324 
        3.37727         82.4787         5.29139 
        3.39294         81.7538         5.23057 
        3.40867         80.8913         5.17048 
        3.42439         79.9687         5.11137 
        3.44008         79.0797          5.0533 
        3.45578         78.4123         4.99609 
        3.47153         77.8623         4.93964 
        3.48724         76.9121         4.88416 
        3.50292         76.3441         4.82967 
        3.51859         75.5704         4.77603 
        3.53431         74.8639         4.72303 
        3.55007         74.0494         4.67072 
        3.56577         73.2479          4.6194 
        3.58146         72.8141         4.56887 
        3.59719         71.9379         4.51899 
        3.61292         71.1979         4.46986 
        3.62859         70.4506         4.42165 
        3.64429         69.7231         4.37406 
        3.66003         69.1478         4.32703 
        3.67578         68.3764          4.2807 
        3.69146         67.9685         4.23522 
        3.70712         67.2148         4.19049 
        3.72284         66.5668         4.14624 
        3.73853         65.9684         4.10271 
        3.75422         65.2663         4.05978 
        3.76993         64.8949         4.01743 
        3.78564          63.935          3.9757 
        3.80137         63.4705          3.9345 
        3.81707          62.981         3.89397 
        3.83279         62.1874         3.85397 
        3.84853         61.8015         3.81447 
        3.86424         61.2436         3.77561 
        3.87992         60.6727         3.73734 
        3.89561         60.0178          3.6996 
        3.91134         59.3504          3.6623 
        3.92704         59.0619         3.62557 
        3.94273         58.4132         3.58937 
        3.95845         57.9422          3.5536 
        3.97418          57.317         3.51831 
        3.98988         56.8984         3.48354 
        4.00554         56.3867         3.44934 
        4.02125         55.8971         3.41551 
        4.03698         55.3115         3.38207 
        4.05268         54.8713         3.34916 
        4.06839         54.3611         3.31666 
         4.0841         53.9268          3.2846 
        4.09983         53.3864         3.25292 
        4.11555         52.8624         3.22167 
        4.13124         52.3598         3.19092 
        4.14693         52.0499         3.16054 
        4.16266         51.5221         3.13049 
        4.17839         51.1518         3.10084 
        4.19408         50.6553         3.07165 
        4.20977         50.2677         3.04282 
        4.22551         49.8189         3.01429 
        4.24123         49.2769         2.98615 
        4.25691         48.9694         2.95846 
        4.27259         48.3586          2.9311 
        4.28831         48.0807         2.90403 
        4.30404         47.6169         2.87729 
        4.31974         47.1648         2.85093 
        4.33543         46.8639         2.82492 
        4.35116         46.2971         2.79917 
        4.36688         45.9719         2.77376 
        4.38255         45.6026         2.74875 
        4.39825         45.2086           2.724 
        4.41398         44.8023          2.6995 
         4.4297         44.5052         2.67533 
        4.44541         44.0958         2.65146 
        4.46111         43.6964          2.6279 
        4.47683         43.2316         2.60461 
        4.49251         43.0487         2.58165 
        4.50819         42.6615         2.55897 
         4.5239         42.2667         2.53653 
        4.53962         41.7853         2.51433 
        4.55535         41.6256         2.49239 
        4.57106         41.3409         2.47074 
        4.58678         40.8284         2.44934 
         4.6025         40.4577         2.42819 
        4.61821         40.1315         2.40729 
        4.63391         39.8673         2.38667 
         4.6496         39.4184          2.3663 
        4.66532         39.1283         2.34613 
        4.68103          38.826         2.32621 
        4.69673         38.5874         2.30653 
        4.71241         38.1819         2.28711 
        4.72811         38.0229         2.26787 
        4.74384         37.6651         2.24884 
        4.75955         37.2819         2.23004 
        4.77525         36.9774         2.21148 
        4.79096         36.6492          2.1931 
        4.80669         36.4111         2.17493 
         4.8224         36.1716         2.15697 
        4.83809         35.7396         2.13925 
        4.85379         35.4905         2.12171 
         4.8695         35.2411         2.10435 
        4.88521         34.9559         2.08719 
        4.90093         34.6054         2.07022 
        4.91663         34.3808         2.05346 
        4.93234         34.1246         2.03686 
        4.94807         33.8027         2.02044 
        4.96377         33.5867         2.00423 
        4.97943          33.243         1.98822 
        4.99514         33.0885         1.97236 
        5.01086         32.7653         1.95665 
        5.02654         32.5601         1.94116 
        5.04227         32.2305         1.92578 
          5.058         32.0319         1.91057 
        5.07371         31.7819         1.89555 
        5.08942         31.5413         1.88069 
        5.10513         31.3145         1.86599 
        5.12084           31.07         1.85143 
        5.13656         30.8079         1.83704 
        5.15225         30.5414         1.82282 
        5.16796         30.2978         1.80873 
        5.18369         30.1134         1.79478 
         5.1994         29.9175           1.781 
        5.21509         29.6732         1.76737 
        5.23079         29.4337         1.75387 
        5.24649         29.1636         1.74053 
        5.26217          28.951         1.72733 
        5.27788         28.7495         1.71425 
        5.29359         28.5315          1.7013 
        5.30933         28.3122         1.68847 
        5.32504         28.0832         1.67579 
        5.34073         27.8855         1.66326 
        5.35646         27.6522         1.65083 
        5.37218         27.4557         1.63852 
        5.38789         27.2417         1.62636 
        5.40357         27.0158         1.61433 
        5.41929         26.8237          1.6024 
        5.43502         26.6697         1.59059 
         5.4507         26.4786         1.57893 
        5.46639         26.2503         1.56738 
        5.48212          26.142         1.55592 
        5.49786         25.8729         1.54457 
        5.51353         25.7701         1.53338 
        5.52921         25.5018         1.52229 
        5.54495         25.3774         1.51127 
        5.56066         25.1632         1.50038 
        5.57637         24.9661          1.4896 
        5.59207         24.7626         1.47893 
        5.60778         24.5637         1.46837 
        5.62346         24.3814         1.45792 
        5.63916         24.2277         1.44756 
        5.65487         24.0917          1.4373 
         5.6706         23.8579         1.42712 
        5.68633         23.7028         1.41704 
        5.70203         23.5414         1.40708 
        5.71773         23.3624         1.39722 
        5.73344         23.2315         1.38744 
        5.74916         23.0117         1.37775 
        5.76486         22.9106         1.36817 
        5.78054         22.7167         1.35869 
        5.79626         22.5885         1.34927 
          5.812         22.3947         1.33994 
         5.8277         22.2476         1.33072 
        5.84339         22.0833         1.32158 
        5.85911         21.9004         1.31252 
        5.87484         21.7712         1.30354 
        5.89053         21.6434         1.29466 
        5.90623          21.468         1.28586 
        5.92195         21.3388         1.27713 
        5.93767         21.1634         1.26848 
        5.95336         21.0205         1.25993 
        5.96905         20.8613         1.25146 
        5.98476         20.7079         1.24306 
        6.00048         20.6005         1.23473 
        6.01617         20.4533         1.22649 
        6.03185          20.299         1.21833 
        6.04756         20.1166         1.21023 
        6.06331         20.0271         1.20218 
        6.07903         19.8609         1.19422 
        6.09473         19.7137         1.18635 
        6.11044         19.5626         1.17854 
        6.12616         19.4544         1.17079 
        6.14186         19.3107         1.16313 
        6.15755         19.1892         1.15553 
        6.17326         19.0526           1.148 
        6.18898         18.9099         1.14053 
        6.20467         18.7981         1.13314 
        6.22036          18.661         1.12582 
         6.2361         18.5393         1.11854 
         6.2518         18.4338         1.11134 
        6.26748         18.2567         1.10421 
        6.28319         18.1631         1.09713 
        6.29893         18.0507         1.09011 
        6.31463         17.9114         1.08316 
        6.33033         17.7789         1.07627 
        6.34604         17.6613         1.06943 
        6.36177         17.5256         1.06265 
        6.37747         17.4635         1.05594 
