# k  (h/Mpc)    Pcb(k)  (Mpc/h)^3    Pcb_linear(k) (Mpc/h)^3   ShotnoiseSubtracted = true
      0.0200456         664.865         672.085 
      0.0350414         531.649         526.983 
      0.0492313         417.664         417.533 
      0.0637834         336.537         339.521 
      0.0800726         255.486         256.475 
       0.096163         203.787         201.734 
       0.111083         172.684         170.768 
       0.126058         141.528         141.956 
       0.142273         115.426         115.515 
       0.158546         98.6225         98.4055 
        0.17375         86.5188         85.6161 
       0.188953          74.313         73.6038 
       0.204907         63.0165         63.7146 
       0.220756         56.6268         56.3136 
        0.23588         50.2999         50.0187 
         0.2514         44.7457         44.3205 
       0.267535         40.2685         39.5264 
       0.283568         36.0064         35.5179 
       0.299022         32.6958         32.0736 
       0.314451         30.2293         29.0798 
       0.330372         27.1614         26.4406 
       0.346141         24.8255         24.1372 
       0.361624         22.7167         22.1223 
       0.377134         20.8237         20.3402 
       0.392932         19.7981         18.7344 
       0.408854         17.8984         17.2865 
       0.424564         16.9794          16.004 
       0.440253         15.5637         14.8561 
       0.455999         14.2779         13.8182 
       0.471626         13.3693         12.8847 
        0.48727         12.8185         12.0363 
       0.502856         12.0126         11.2675 
       0.518488         11.0773         10.5639 
       0.534347         10.3597         9.91124 
       0.550082         9.92786         9.31823 
       0.565732         9.48051         8.77672 
       0.581496         8.90014         8.27482 
       0.597222         8.38248         7.81324 
       0.612804          7.9102         7.39076 
       0.628434         7.59508         6.99851 
       0.644267         7.22957         6.63027 
       0.660051         6.85103         6.28965 
       0.675724         6.46563         5.97516 
       0.691403         6.21225         5.68214 
       0.707174         5.91508          5.4073 
       0.722871         5.76932         5.15186 
        0.73838         5.38164         4.91575 
       0.754018         5.14728         4.69273 
       0.769845         4.88238         4.48115 
        0.78569          4.7559         4.28245 
       0.801365         4.54863         4.09778 
       0.817031         4.39232         3.92415 
       0.832809         4.16406          3.7595 
       0.848511         4.04006         3.60505 
       0.864097         3.89441         3.46037 
       0.879701         3.78247         3.32352 
       0.895507         3.60632         3.19247 
       0.911279         3.48753         3.06879 
        0.92691         3.38737         2.95271 
       0.942635           3.227         2.84202 
       0.958396         3.12279          2.7368 
       0.974128         3.03414         2.63711 
       0.989692         2.90942          2.5434 
        1.00528         2.82623         2.45413 
        1.02113         2.75307         2.36776 
        1.03692         2.67348          2.2859 
        1.05264         2.55768         2.20829 
        1.06832         2.49062         2.13443 
        1.08405         2.40717         2.06377 
        1.09979         2.35031         1.99628 
        1.11537         2.27261         1.93249 
        1.13105         2.18994         1.87112 
        1.14679         2.13738         1.81219 
        1.16256         2.06915         1.75569 
        1.17828         2.03527          1.7018 
        1.19395         1.96134         1.65036 
         1.2097         1.90483         1.60079 
        1.22537         1.84208         1.55351 
          1.241         1.80368         1.50829 
        1.25666         1.77126         1.46476 
        1.27241         1.72098         1.42275 
        1.28819         1.65884         1.38232 
        1.30392         1.62014         1.34358 
        1.31957         1.58934         1.30651 
        1.33529         1.52809         1.27071 
        1.35108         1.49818         1.23611 
        1.36674         1.45676         1.20304 
         1.3824         1.43776         1.17123 
        1.39811         1.39543         1.14046 
        1.41389         1.36107         1.11068 
        1.42964         1.32791         1.08202 
        1.44531          1.3026         1.05451 
        1.46101         1.26365         1.02791 
        1.47667         1.24301          1.0023 
        1.49229         1.20003         0.97764 
        1.50793         1.17644        0.953782 
        1.52367         1.14772        0.930569 
        1.53953         1.12192        0.907974 
        1.55526         1.10929        0.886313 
        1.57092         1.08943        0.865449 
        1.58662         1.07093         0.84521 
        1.60235          1.0361         0.82558 
        1.61809         1.01604        0.806565 
        1.63369        0.988253         0.78832 
        1.64941        0.973653         0.77051 
        1.66519        0.957947        0.753187 
        1.68085         0.93232        0.736522 
        1.69652        0.914117        0.720357 
        1.71228        0.894358        0.704586 
        1.72806        0.877378        0.689277 
        1.74368        0.863002        0.674576 
        1.75933        0.847447        0.660276 
        1.77505        0.833292        0.646325 
        1.79081        0.807566        0.632753 
         1.8065        0.801279        0.619629 
        1.82218        0.779875         0.60689 
        1.83797        0.762054        0.594423 
        1.85367         0.75433        0.582375 
        1.86928        0.739878        0.570734 
        1.88497        0.721266        0.559349 
        1.90073        0.714797        0.548232 
        1.91647        0.696731        0.537429 
        1.93218        0.686071        0.526939 
        1.94787        0.674216        0.516746 
        1.96363        0.664114        0.506782 
        1.97935        0.650325        0.497102 
        1.99499        0.640526         0.48773 
        2.01064         0.62965        0.478587 
         2.0264        0.613676        0.469621 
        2.04216        0.606924        0.460889 
        2.05781        0.598334        0.452434 
        2.07353        0.587135        0.444162 
        2.08928        0.578169        0.436079 
        2.10499        0.566902        0.428219 
        2.12065        0.557891        0.420577 
        2.13633        0.549783        0.413115 
        2.15211        0.538331        0.405786 
        2.16785        0.532231        0.398655 
        2.18349        0.524037        0.391741 
        2.19916        0.515234        0.384977 
        2.21489        0.505821         0.37835 
        2.23063        0.496852        0.371874 
         2.2463        0.491021         0.36558 
        2.26194        0.484886        0.359447 
        2.27765        0.475656        0.353424 
        2.29341        0.468947        0.347523 
        2.30914        0.459656        0.341769 
        2.32486        0.453744        0.336149 
        2.34061         0.44607        0.330646 
        2.35635         0.44009        0.325271 
        2.37203        0.436292        0.320034 
        2.38768        0.428419        0.314924 
        2.40339        0.421895        0.309907 
        2.41914        0.416389        0.304987 
        2.43483        0.409313        0.300192 
         2.4505        0.404126        0.295508 
        2.46622        0.398856        0.290908 
        2.48195        0.391066        0.286406 
        2.49759        0.390267        0.282023 
        2.51328        0.381043        0.277721 
        2.52906        0.375113        0.273481 
        2.54479        0.370593        0.269345 
        2.56049        0.365137        0.265303 
        2.57618         0.36217        0.261348 
        2.59189        0.355082        0.257467 
        2.60758        0.352468        0.253672 
        2.62325        0.347003        0.249957 
        2.63898        0.343805        0.246304 
        2.65468        0.336365        0.242732 
        2.67044        0.332772        0.239216 
        2.68618        0.328913        0.235777 
        2.70184        0.324209        0.232419 
        2.71755         0.31899        0.229119 
        2.73329        0.318379        0.225878 
        2.74897        0.311279         0.22271 
        2.76462        0.308578        0.219609 
        2.78034        0.303434        0.216555 
        2.79607        0.301261        0.213556 
        2.81179        0.295074        0.210618 
        2.82749        0.293093        0.207737 
        2.84321        0.289824        0.204908 
        2.85893        0.285503        0.202132 
        2.87462        0.281344        0.199412 
        2.89033        0.278703         0.19674 
        2.90605        0.275617        0.194115 
        2.92176        0.273595        0.191538 
        2.93747        0.268539         0.18901 
        2.95318        0.265892        0.186527 
        2.96891        0.262918        0.184088 
        2.98456        0.260396        0.181703 
        3.00023        0.256746        0.179356 
        3.01596        0.253521        0.177044 
        3.03164        0.250409         0.17478 
        3.04738        0.248441        0.172548 
         3.0631        0.245954        0.170356 
        3.07883         0.24287        0.168202 
        3.09456        0.240137        0.166085 
        3.11026        0.236714        0.164009 
        3.12596        0.233681        0.161968 
        3.14163        0.232384        0.159966 
        3.15734        0.229779        0.157994 
        3.17308         0.22702         0.15605 
        3.18879        0.224501        0.154144 
        3.20447        0.221639        0.152273 
         3.2202        0.220325        0.150427 
         3.2359        0.217294        0.148615 
        3.25157        0.214296        0.146837 
        3.26729        0.213142        0.145083 
        3.28304        0.210763        0.143354 
        3.29877        0.208187        0.141655 
        3.31446        0.206709        0.139988 
        3.33014         0.20415        0.138349 
        3.34585        0.201713        0.136734 
        3.36158        0.200102        0.135142 
        3.37727        0.198722         0.13358 
        3.39294        0.196664        0.132045 
        3.40867        0.193963        0.130528 
        3.42439        0.192788        0.129036 
        3.44008        0.191067         0.12757 
        3.45578        0.188389        0.126126 
        3.47153        0.187378          0.1247 
        3.48724        0.185546          0.1233 
        3.50292        0.183993        0.121924 
        3.51859        0.182033         0.12057 
        3.53431        0.180221        0.119232 
        3.55007        0.178457        0.117912 
        3.56577        0.177567        0.116616 
        3.58146        0.175586         0.11534 
        3.59719        0.173901        0.114081 
        3.61292        0.172715        0.112841 
        3.62859        0.171192        0.111624 
        3.64429        0.169047        0.110422 
        3.66003        0.168175        0.109235 
        3.67578        0.166594        0.108066 
        3.69146        0.165028        0.106918 
        3.70712        0.163632        0.105788 
        3.72284        0.162972        0.104671 
        3.73853        0.161594        0.103572 
        3.75422        0.159843        0.102488 
        3.76993        0.158307        0.101419 
        3.78564        0.157282        0.100366 
        3.80137        0.156199       0.0993258 
        3.81707        0.154183       0.0983026 
        3.83279        0.153318       0.0972929 
        3.84853        0.152262       0.0962958 
        3.86424        0.150949       0.0953146 
        3.87992        0.149738       0.0943485 
        3.89561         0.14877       0.0933958 
        3.91134        0.147462       0.0924543 
        3.92704        0.146061       0.0915268 
        3.94273        0.145094        0.090613 
        3.95845        0.143363         0.08971 
        3.97418        0.142654       0.0888191 
        3.98988        0.140899       0.0879415 
        4.00554        0.140184       0.0870781 
        4.02125        0.138777       0.0862239 
        4.03698        0.136787       0.0853798 
        4.05268        0.136135       0.0845489 
        4.06839        0.134147       0.0837284 
         4.0841        0.132819       0.0829191 
        4.09983        0.131483       0.0821194 
        4.11555        0.130106       0.0813305 
        4.13124        0.128642       0.0805541 
        4.14693        0.127232       0.0797873 
        4.16266        0.125864       0.0790286 
        4.17839        0.124479       0.0782802 
        4.19408        0.123255       0.0775432 
        4.20977        0.122177       0.0768154 
        4.22551        0.121372       0.0760952 
        4.24123        0.119811        0.075385 
        4.25691        0.118959       0.0746858 
        4.27259         0.11785       0.0739951 
        4.28831        0.117363       0.0733119 
        4.30404        0.115498       0.0726366 
        4.31974        0.115093       0.0719713 
        4.33543        0.114159       0.0713147 
        4.35116        0.113263       0.0706647 
        4.36688        0.112438       0.0700231 
        4.38255        0.111722       0.0693918 
        4.39825        0.111332       0.0687669 
        4.41398        0.110269       0.0681485 
         4.4297        0.109825       0.0675383 
        4.44541         0.10899       0.0669357 
        4.46111         0.10837       0.0663409 
        4.47683         0.10765       0.0657529 
        4.49251        0.107153       0.0651733 
        4.50819         0.10684       0.0646007 
         4.5239        0.106267       0.0640343 
        4.53962        0.105742       0.0634739 
        4.55535        0.105705       0.0629199 
        4.57106        0.104994       0.0623734 
        4.58678        0.104746       0.0618332 
         4.6025        0.104329       0.0612993 
        4.61821        0.104175       0.0607718 
        4.63391        0.103862       0.0602511 
         4.6496        0.103573       0.0597368 
        4.66532        0.103411       0.0592277 
        4.68103        0.103257       0.0587247 
        4.69673         0.10311       0.0582281 
        4.71241         0.10349       0.0577377 
        4.72811        0.102975       0.0572521 
        4.74384        0.102824       0.0567715 
        4.75955        0.102855       0.0562971 
        4.77525        0.103083       0.0558284 
        4.79096        0.103102       0.0553645 
        4.80669        0.102689       0.0549056 
         4.8224        0.103284       0.0544525 
        4.83809        0.103241       0.0540049 
        4.85379        0.103473       0.0535621 
         4.8695        0.103556       0.0531239 
        4.88521        0.103819       0.0526908 
        4.90093        0.104457       0.0522624 
        4.91663        0.104242       0.0518392 
        4.93234        0.104655       0.0514202 
        4.94807         0.10482       0.0510056 
        4.96377        0.105559       0.0505963 
        4.97943        0.106354       0.0501924 
        4.99514        0.106303       0.0497918 
        5.01086        0.106393       0.0493953 
        5.02654        0.107458       0.0490042 
        5.04227        0.108077       0.0486161 
          5.058        0.108272        0.048232 
        5.07371        0.109074       0.0478528 
        5.08942        0.109817       0.0474777 
        5.10513          0.1105       0.0471065 
        5.12084        0.111262       0.0467391 
        5.13656        0.111789       0.0463758 
        5.15225        0.112652       0.0460168 
        5.16796        0.113737       0.0456611 
        5.18369        0.114333       0.0453089 
         5.1994        0.115325        0.044961 
        5.21509        0.116276        0.044617 
        5.23079        0.117088       0.0442763 
        5.24649        0.118318       0.0439393 
        5.26217        0.119262       0.0436062 
        5.27788        0.120265       0.0432759 
        5.29359        0.121383       0.0429491 
        5.30933        0.122466       0.0426252 
        5.32504        0.123897       0.0423051 
        5.34073        0.124602       0.0419887 
        5.35646        0.126309       0.0416748 
        5.37218         0.12783       0.0413641 
        5.38789        0.128921       0.0410571 
        5.40357        0.130023       0.0407536 
        5.41929        0.131105       0.0404524 
        5.43502        0.133079       0.0401543 
         5.4507        0.135048       0.0398598 
        5.46639        0.136075       0.0395683 
        5.48212        0.137372        0.039279 
        5.49786        0.139292       0.0389923 
        5.51353        0.141888       0.0387098 
        5.52921        0.142209       0.0384299 
        5.54495        0.145186       0.0381519 
        5.56066        0.146648       0.0378769 
        5.57637        0.148338       0.0376047 
        5.59207        0.149681       0.0373354 
        5.60778        0.152336       0.0370687 
        5.62346         0.15396       0.0368049 
        5.63916        0.155867       0.0365434 
        5.65487        0.158407       0.0362844 
         5.6706        0.159633       0.0360275 
        5.68633        0.162568       0.0357731 
        5.70203        0.164779       0.0355216 
        5.71773        0.167254       0.0352726 
        5.73344        0.169653       0.0350258 
        5.74916        0.172122       0.0347811 
        5.76486        0.174322       0.0345392 
        5.78054        0.175913       0.0342999 
        5.79626        0.179637       0.0340622 
          5.812        0.181202       0.0338265 
         5.8277        0.183535       0.0335937 
        5.84339        0.187147       0.0333632 
        5.85911        0.189353       0.0331343 
        5.87484         0.19189       0.0329076 
        5.89053        0.193832       0.0326835 
        5.90623        0.198492       0.0324614 
        5.92195        0.200463        0.032241 
        5.93767        0.202856       0.0320227 
        5.95336        0.205802       0.0318068 
        5.96905        0.209295        0.031593 
        5.98476        0.210867       0.0313808 
        6.00048        0.215427       0.0311705 
        6.01617        0.218017       0.0309624 
        6.03185        0.220959       0.0307565 
        6.04756          0.2239        0.030552 
        6.06331        0.228551       0.0303489 
        6.07903        0.232044        0.030148 
        6.09473        0.233386       0.0299492 
        6.11044        0.238853       0.0297519 
        6.12616        0.239748       0.0295565 
        6.14186        0.243793        0.029363 
        6.15755        0.247316       0.0291713 
        6.17326        0.251811       0.0289811 
        6.18898        0.254455       0.0287925 
        6.20467        0.257537        0.028606 
        6.22036        0.260616       0.0284211 
         6.2361        0.262647       0.0282373 
         6.2518        0.267479       0.0280555 
        6.26748        0.271536       0.0278757 
        6.28319        0.275696       0.0276969 
        6.29893        0.279962       0.0275196 
        6.31463         0.28326       0.0273441 
        6.33033        0.285742       0.0271702 
        6.34604        0.290918       0.0269977 
        6.36177        0.293353       0.0268265 
        6.37747        0.297471       0.0266571 
