# k  (h/Mpc)    Pcb(k)  (Mpc/h)^3    Pcb_linear(k) (Mpc/h)^3   ShotnoiseSubtracted = true
      0.0200456         5133.64         5192.14 
      0.0350414         4144.49         4071.17 
      0.0492313         3205.39         3225.62 
      0.0637834         2556.52         2622.94 
      0.0800726         1937.85         1981.38 
       0.096163         1588.87         1558.48 
       0.111083         1355.92         1319.25 
       0.126058         1089.02         1096.67 
       0.142273           899.7         892.405 
       0.158546         776.147         760.225 
        0.17375         687.822         661.421 
       0.188953         604.802         568.621 
       0.204907         508.036         492.222 
       0.220756         463.645         435.046 
        0.23588         413.768         386.416 
         0.2514         368.225         342.395 
       0.267535         347.445         305.358 
       0.283568         305.931         274.391 
       0.299022         287.932         247.782 
       0.314451         278.681         224.654 
       0.330372         242.617         204.265 
       0.346141          224.73          186.47 
       0.361624         211.555         170.904 
       0.377134         194.047         157.137 
       0.392932         188.928         144.731 
       0.408854         177.077         133.545 
       0.424564         169.311         123.638 
       0.440253         153.629         114.769 
       0.455999         143.735         106.751 
       0.471626         138.743         99.5394 
        0.48727         134.416         92.9855 
       0.502856         123.457         87.0464 
       0.518488         120.256         81.6108 
       0.534347         113.298         76.5685 
       0.550082         110.104         71.9873 
       0.565732         107.282         67.8039 
       0.581496         99.2333         63.9265 
       0.597222          96.391         60.3606 
       0.612804         93.3888         57.0968 
       0.628434         90.9244         54.0665 
       0.644267         86.2237         51.2217 
       0.660051         83.1308         48.5902 
       0.675724         81.1944         46.1607 
       0.691403         79.5117          43.897 
       0.707174         76.9341         41.7737 
       0.722871         74.9241         39.8003 
        0.73838         72.1934         37.9763 
       0.754018         68.4081         36.2533 
       0.769845         67.6622         34.6188 
        0.78569         65.3342         33.0838 
       0.801365         63.7236         31.6571 
       0.817031         61.4072         30.3157 
       0.832809         60.3398         29.0437 
       0.848511          58.709         27.8506 
       0.864097         57.6352         26.7329 
       0.879701         56.4199         25.6756 
       0.895507         54.3836         24.6632 
       0.911279         53.4079         23.7077 
        0.92691         51.8939          22.811 
       0.942635          50.952         21.9558 
       0.958396         50.5011         21.1429 
       0.974128         49.1819         20.3728 
       0.989692         47.7476         19.6489 
        1.00528         47.0404         18.9592 
        1.02113          46.009          18.292 
        1.03692         45.4879         17.6595 
        1.05264         44.4053           17.06 
        1.06832         43.5019         16.4894 
        1.08405         42.4737         15.9435 
        1.09979          42.336         15.4221 
        1.11537         40.9861         14.9293 
        1.13105         40.0965         14.4552 
        1.14679         39.4914         13.9999 
        1.16256         38.9855         13.5635 
        1.17828         38.3962         13.1471 
        1.19395         37.5854         12.7497 
         1.2097         37.1442         12.3668 
        1.22537         36.4276         12.0015 
          1.241         35.7784         11.6522 
        1.25666         35.3323         11.3159 
        1.27241         34.8978         10.9913 
        1.28819         33.6731          10.679 
        1.30392         33.9051         10.3798 
        1.31957         33.2176         10.0934 
        1.33529         32.5671         9.81674 
        1.35108         32.1509         9.54944 
        1.36674          31.821         9.29403 
         1.3824         31.1988         9.04823 
        1.39811         30.5243         8.81053 
        1.41389          30.235         8.58049 
        1.42964         29.9311         8.35907 
        1.44531         29.3421         8.14657 
        1.46101         29.1166         7.94103 
        1.47667         28.7227         7.74321 
        1.49229         28.1687         7.55269 
        1.50793         27.9028         7.36837 
        1.52367         27.5026         7.18904 
        1.53953         27.2129         7.01449 
        1.55526         26.7522         6.84714 
        1.57092         26.5461         6.68597 
        1.58662         26.1713         6.52961 
        1.60235         25.7507         6.37796 
        1.61809         25.5578         6.23106 
        1.63369         25.2713         6.09011 
        1.64941         24.9367         5.95252 
        1.66519         24.4639         5.81869 
        1.68085         24.1098         5.68995 
        1.69652         24.0667         5.56506 
        1.71228         23.6886         5.44323 
        1.72806         23.3094         5.32496 
        1.74368          23.107         5.21139 
        1.75933         22.8544         5.10092 
        1.77505         22.6487         4.99314 
        1.79081         22.3757         4.88829 
         1.8065         22.0604          4.7869 
        1.82218         21.8527         4.68849 
        1.83797         21.7108         4.59217 
        1.85367         21.5228          4.4991 
        1.86928         21.2639         4.40917 
        1.88497         20.9958         4.32121 
        1.90073         20.7215         4.23533 
        1.91647         20.4212         4.15187 
        1.93218         20.4909         4.07083 
        1.94787         20.0869         3.99208 
        1.96363         19.9986         3.91511 
        1.97935         19.6304         3.84033 
        1.99499         19.4339         3.76793 
        2.01064         19.2966         3.69729 
         2.0264         19.0373         3.62802 
        2.04216         18.9316         3.56056 
        2.05781         18.7404         3.49525 
        2.07353         18.5077         3.43134 
        2.08928         18.2668          3.3689 
        2.10499         18.0708         3.30818 
        2.12065         17.9285         3.24914 
        2.13633         17.7952         3.19149 
        2.15211         17.5422         3.13487 
        2.16785         17.4738         3.07978 
        2.18349         17.2056         3.02637 
        2.19916          17.064         2.97411 
        2.21489         16.8791         2.92291 
        2.23063         16.7926         2.87289 
         2.2463         16.5425         2.82426 
        2.26194         16.4137         2.77688 
        2.27765         16.1507         2.73035 
        2.29341         16.0603         2.68476 
        2.30914          15.893         2.64031 
        2.32486         15.8179         2.59689 
        2.34061           15.66         2.55438 
        2.35635         15.4788         2.51286 
        2.37203         15.3127          2.4724 
        2.38768         15.1465         2.43292 
        2.40339         15.0752         2.39416 
        2.41914         14.8708         2.35616 
        2.43483         14.7188         2.31911 
         2.4505         14.5831         2.28293 
        2.46622         14.5059         2.24739 
        2.48195         14.3767         2.21261 
        2.49759         14.1507         2.17875 
        2.51328         14.1616         2.14551 
        2.52906         13.9617         2.11275 
        2.54479         13.8064         2.08081 
        2.56049         13.6506         2.04958 
        2.57618         13.6216         2.01902 
        2.59189          13.527         1.98905 
        2.60758          13.305         1.95972 
        2.62325          13.216         1.93103 
        2.63898         13.1381         1.90281 
        2.65468         12.9359         1.87521 
        2.67044         12.9006         1.84804 
        2.68618         12.7865         1.82148 
        2.70184          12.614         1.79554 
        2.71755         12.5481         1.77004 
        2.73329         12.3902           1.745 
        2.74897         12.3428         1.72053 
        2.76462         12.2211         1.69658 
        2.78034         12.0862         1.67298 
        2.79607         12.0172         1.64981 
        2.81179          11.883         1.62711 
        2.82749         11.7916         1.60486 
        2.84321         11.6942           1.583 
        2.85893         11.5814         1.56156 
        2.87462         11.5424         1.54055 
        2.89033         11.3897          1.5199 
        2.90605         11.3112         1.49962 
        2.92176         11.1871         1.47972 
        2.93747         11.1215         1.46019 
        2.95318         11.0029           1.441 
        2.96891         10.9378         1.42216 
        2.98456         10.8229         1.40373 
        3.00023         10.7591         1.38561 
        3.01596          10.629         1.36774 
        3.03164         10.6189         1.35025 
        3.04738           10.48         1.33301 
         3.0631          10.321         1.31607 
        3.07883         10.2826         1.29943 
        3.09456         10.2439         1.28308 
        3.11026         10.1741         1.26704 
        3.12596         10.0443         1.25127 
        3.14163         9.99878         1.23581 
        3.15734         9.87294         1.22057 
        3.17308         9.81598         1.20555 
        3.18879         9.73491         1.19083 
        3.20447         9.63463         1.17637 
         3.2202         9.57427         1.16211 
         3.2359         9.46835         1.14811 
        3.25157         9.43985         1.13438 
        3.26729         9.34085         1.12083 
        3.28304         9.25441         1.10747 
        3.29877         9.19371         1.09435 
        3.31446         9.11661         1.08147 
        3.33014         9.04356          1.0688 
        3.34585         8.99633         1.05633 
        3.36158         8.91463         1.04403 
        3.37727          8.8574         1.03196 
        3.39294         8.76324          1.0201 
        3.40867         8.71637         1.00838 
        3.42439         8.63837        0.996856 
        3.44008         8.55263        0.985531 
        3.45578         8.49414        0.974374 
        3.47153         8.40607        0.963365 
        3.48724         8.36719        0.952545 
        3.50292         8.27401        0.941916 
        3.51859         8.24169        0.931455 
        3.53431         8.15475         0.92112 
        3.55007         8.09531        0.910917 
        3.56577         8.01538        0.900908 
        3.58146         7.98906        0.891054 
        3.59719          7.9103        0.881325 
        3.61292         7.85927        0.871744 
        3.62859         7.81023        0.862342 
        3.64429         7.73553        0.853061 
        3.66003         7.68866        0.843887 
        3.67578           7.608        0.834852 
        3.69146         7.56999        0.825984 
        3.70712         7.51826         0.81726 
        3.72284         7.42617         0.80863 
        3.73853         7.39649        0.800139 
        3.75422         7.32932        0.791767 
        3.76993         7.25933        0.783508 
        3.78564         7.21883         0.77537 
        3.80137         7.19272        0.767335 
        3.81707         7.09968        0.759429 
        3.83279         7.04327        0.751629 
        3.84853         6.99481        0.743926 
        3.86424          6.9606        0.736346 
        3.87992         6.89327        0.728883 
        3.89561         6.84869        0.721522 
        3.91134          6.7722        0.714249 
        3.92704         6.73966        0.707084 
        3.94273         6.68622        0.700024 
        3.95845         6.65181        0.693048 
        3.97418         6.59591        0.686165 
        3.98988         6.55529        0.679386 
        4.00554         6.49833        0.672716 
        4.02125         6.45167        0.666116 
        4.03698         6.40135        0.659595 
        4.05268          6.3316        0.653176 
        4.06839         6.28198        0.646838 
         4.0841         6.24881        0.640586 
        4.09983         6.19675        0.634407 
        4.11555         6.13048        0.628313 
        4.13124         6.09925        0.622315 
        4.14693         6.05905        0.616391 
        4.16266         6.02913         0.61053 
        4.17839         5.97948        0.604748 
        4.19408         5.92997        0.599055 
        4.20977         5.88529        0.593432 
        4.22551         5.84587        0.587868 
        4.24123         5.79668        0.582381 
        4.25691         5.75545        0.576979 
        4.27259         5.71633        0.571644 
        4.28831         5.66917        0.566366 
        4.30404         5.61365        0.561149 
        4.31974         5.58204        0.556009 
        4.33543         5.54419        0.550936 
        4.35116         5.49724        0.545915 
        4.36688           5.461        0.540958 
        4.38255          5.4282        0.536081 
        4.39825          5.3861        0.531254 
        4.41398         5.34649        0.526476 
         4.4297         5.32034        0.521762 
        4.44541         5.27041        0.517107 
        4.46111         5.23888        0.512512 
        4.47683         5.18749         0.50797 
        4.49251         5.16826        0.503491 
        4.50819         5.13316        0.499068 
         4.5239         5.09312        0.494692 
        4.53962         5.04385        0.490363 
        4.55535         5.01789        0.486083 
        4.57106         4.98345        0.481861 
        4.58678         4.94125        0.477688 
         4.6025         4.91915        0.473563 
        4.61821         4.87348        0.469488 
        4.63391         4.82906        0.465466 
         4.6496          4.8109        0.461492 
        4.66532         4.77121        0.457559 
        4.68103         4.73829        0.453674 
        4.69673         4.71426        0.449837 
        4.71241         4.67977        0.446048 
        4.72811         4.65203        0.442297 
        4.74384         4.61817        0.438584 
        4.75955         4.57355        0.434919 
        4.77525         4.54399        0.431298 
        4.79096         4.52853        0.427714 
        4.80669         4.49411        0.424169 
         4.8224         4.44915        0.420669 
        4.83809         4.42972        0.417211 
        4.85379         4.38746         0.41379 
         4.8695           4.364        0.410405 
        4.88521         4.34352        0.407059 
        4.90093         4.30839         0.40375 
        4.91663          4.2861         0.40048 
        4.93234         4.24796        0.397243 
        4.94807         4.22631         0.39404 
        4.96377         4.18877        0.390878 
        4.97943         4.17122        0.387758 
        4.99514         4.13817        0.384663 
        5.01086         4.11469          0.3816 
        5.02654         4.08015        0.378578 
        5.04227         4.05739         0.37558 
          5.058         4.02928        0.372613 
        5.07371         4.00833        0.369684 
        5.08942         3.97117        0.366785 
        5.10513         3.94736        0.363918 
        5.12084         3.92796         0.36108 
        5.13656         3.90744        0.358273 
        5.15225         3.87631          0.3555 
        5.16796          3.8509        0.352752 
        5.18369         3.81913         0.35003 
         5.1994         3.80088        0.347343 
        5.21509          3.7689        0.344686 
        5.23079         3.74657        0.342053 
        5.24649         3.72621         0.33945 
        5.26217         3.70043        0.336876 
        5.27788         3.67793        0.334325 
        5.29359         3.65546          0.3318 
        5.30933         3.63762        0.329297 
        5.32504         3.61319        0.326825 
        5.34073          3.5934         0.32438 
        5.35646         3.56313        0.321956 
        5.37218         3.54979        0.319556 
        5.38789         3.52404        0.317184 
        5.40357         3.49658        0.314839 
        5.41929         3.47511        0.312512 
        5.43502         3.45261        0.310209 
         5.4507          3.4338        0.307934 
        5.46639         3.39928        0.305682 
        5.48212         3.39017        0.303447 
        5.49786         3.37353        0.301232 
        5.51353         3.35107         0.29905 
        5.52921         3.32671        0.296887 
        5.54495         3.30703         0.29474 
        5.56066         3.29114        0.292615 
        5.57637         3.26574        0.290513 
        5.59207         3.24481        0.288432 
        5.60778          3.2267        0.286371 
        5.62346         3.20743        0.284334 
        5.63916          3.1861        0.282314 
        5.65487         3.16885        0.280312 
         5.6706          3.1457        0.278328 
        5.68633          3.1358        0.276362 
        5.70203         3.11606        0.274419 
        5.71773          3.0904        0.272496 
        5.73344         3.07177        0.270589 
        5.74916         3.05798        0.268699 
        5.76486         3.03987         0.26683 
        5.78054         3.02178        0.264981 
        5.79626         3.00191        0.263145 
          5.812         2.97928        0.261324 
         5.8277         2.96729        0.259526 
        5.84339         2.94665        0.257745 
        5.85911         2.92731        0.255977 
        5.87484         2.91432        0.254225 
        5.89053          2.8981        0.252494 
        5.90623         2.87673        0.250778 
        5.92195          2.8696        0.249075 
        5.93767         2.84711        0.247389 
        5.95336         2.82819        0.245721 
        5.96905         2.81218        0.244069 
        5.98476         2.79299         0.24243 
        6.00048         2.77841        0.240806 
        6.01617         2.76427        0.239198 
        6.03185          2.7504        0.237607 
        6.04756         2.73042        0.236027 
        6.06331         2.71649        0.234458 
        6.07903         2.70006        0.232906 
        6.09473         2.68801         0.23137 
        6.11044         2.66768        0.229846 
        6.12616         2.65656        0.228337 
        6.14186         2.64004        0.226842 
        6.15755         2.62684        0.225361 
        6.17326         2.61311        0.223891 
        6.18898         2.59167        0.222435 
        6.20467         2.58291        0.220993 
        6.22036         2.57042        0.219565 
         6.2361         2.55234        0.218146 
         6.2518         2.53694        0.216741 
        6.26748         2.52468        0.215352 
        6.28319         2.51289        0.213971 
        6.29893         2.49705        0.212601 
        6.31463         2.48779        0.211245 
        6.33033         2.47479        0.209901 
        6.34604         2.45662        0.208569 
        6.36177         2.44732        0.207246 
        6.37747         2.43213        0.205938 
