# k  (h/Mpc)    Pcb(k)  (Mpc/h)^3    Pcb_linear(k) (Mpc/h)^3   ShotnoiseSubtracted = true
      0.0200456         21012.6           21508 
      0.0350414         16036.8         16864.4 
      0.0492313           12954         13361.8 
      0.0637834         10996.5         10865.3 
      0.0800726         8351.12         8207.69 
       0.096163         6140.49         6455.87 
       0.111083         5145.81         5464.88 
       0.126058         4566.16         4542.87 
       0.142273         3861.32         3696.71 
       0.158546         3533.74         3149.16 
        0.17375         2870.63         2739.88 
       0.188953         2765.49         2355.46 
       0.204907         2589.95         2038.99 
       0.220756         2277.44         1802.14 
        0.23588         2042.05         1600.69 
         0.2514         1782.12         1418.34 
       0.267535         1786.63         1264.92 
       0.283568         1623.92         1136.64 
       0.299022         1540.17         1026.42 
       0.314451         1469.15         930.609 
       0.330372         1349.43          846.15 
       0.346141         1307.75         772.437 
       0.361624         1254.25         707.954 
       0.377134         1169.63         650.925 
       0.392932         1127.52         599.535 
       0.408854          1104.8         553.199 
       0.424564         1024.43         512.158 
       0.440253         1004.61         475.422 
       0.455999         979.505         442.207 
       0.471626          939.85         412.333 
        0.48727         905.351         385.184 
       0.502856         877.611         360.582 
       0.518488         870.257         338.066 
       0.534347         817.427         317.178 
       0.550082         800.693         298.201 
       0.565732         795.586         280.872 
       0.581496         753.832          264.81 
       0.597222         739.665         250.038 
       0.612804         727.639         236.518 
       0.628434         707.788         223.965 
       0.644267         688.987         212.181 
       0.660051         669.058         201.281 
       0.675724          664.51         191.216 
       0.691403         641.644         181.839 
       0.707174         622.386         173.044 
       0.722871         614.047         164.869 
        0.73838         601.303         157.313 
       0.754018         591.096         150.176 
       0.769845         579.566         143.405 
        0.78569         568.628         137.046 
       0.801365         554.422         131.137 
       0.817031         541.355          125.58 
       0.832809         536.195         120.311 
       0.848511         523.605         115.369 
       0.864097         507.747         110.738 
       0.879701         501.314         106.359 
       0.895507         499.638         102.165 
       0.911279         485.786         98.2072 
        0.92691         479.705         94.4924 
       0.942635          466.26         90.9501 
       0.958396         453.426         87.5826 
       0.974128         448.679         84.3926 
       0.989692         444.051         81.3936 
        1.00528         430.862         78.5367 
        1.02113         429.694         75.7729 
        1.03692          416.85         73.1529 
        1.05264         413.353         70.6695 
        1.06832         402.248         68.3059 
        1.08405         398.075         66.0445 
        1.09979         392.069         63.8847 
        1.11537         383.962         61.8433 
        1.13105         378.062         59.8794 
        1.14679          369.48         57.9935 
        1.16256         359.198         56.1855 
        1.17828          360.68         54.4608 
        1.19395         351.923         52.8147 
         1.2097         345.266         51.2284 
        1.22537         337.674         49.7153 
          1.241         334.212          48.268 
        1.25666         328.094         46.8749 
        1.27241         323.663         45.5305 
        1.28819         318.036         44.2367 
        1.30392          311.61         42.9972 
        1.31957         308.555         41.8108 
        1.33529         304.259          40.665 
        1.35108         297.536         39.5577 
        1.36674         291.565         38.4997 
         1.3824         289.993         37.4815 
        1.39811         284.232         36.4968 
        1.41389         281.693         35.5439 
        1.42964         277.778         34.6267 
        1.44531         273.217         33.7464 
        1.46101         267.723          32.895 
        1.47667         264.793         32.0756 
        1.49229          260.98         31.2863 
        1.50793         255.269         30.5228 
        1.52367         253.447         29.7799 
        1.53953         248.669         29.0569 
        1.55526         244.339         28.3637 
        1.57092         243.018          27.696 
        1.58662          239.47         27.0483 
        1.60235         234.658         26.4201 
        1.61809         231.489         25.8116 
        1.63369          228.94         25.2277 
        1.64941         224.789         24.6578 
        1.66519         222.089         24.1034 
        1.68085         219.623         23.5701 
        1.69652         215.483         23.0528 
        1.71228         210.416         22.5481 
        1.72806         208.417         22.0581 
        1.74368         205.633         21.5877 
        1.75933         202.585         21.1301 
        1.77505         201.092         20.6836 
        1.79081         198.177         20.2493 
         1.8065         194.233         19.8293 
        1.82218         192.152         19.4216 
        1.83797         190.888         19.0226 
        1.85367          187.27         18.6371 
        1.86928         183.756         18.2646 
        1.88497         181.821         17.9002 
        1.90073         179.551         17.5445 
        1.91647         177.558         17.1987 
        1.93218         174.716         16.8631 
        1.94787         170.922         16.5368 
        1.96363         168.822          16.218 
        1.97935         167.857         15.9082 
        1.99499         165.242         15.6083 
        2.01064         163.298         15.3157 
         2.0264         161.777         15.0287 
        2.04216         159.259         14.7493 
        2.05781          156.84         14.4788 
        2.07353         154.522          14.214 
        2.08928         152.757         13.9554 
        2.10499         150.813         13.7038 
        2.12065         148.604         13.4593 
        2.13633         146.847         13.2205 
        2.15211         144.646         12.9859 
        2.16785         142.994         12.7577 
        2.18349         141.293         12.5365 
        2.19916          139.29           12.32 
        2.21489         138.078         12.1079 
        2.23063         135.871         11.9007 
         2.2463         133.361         11.6992 
        2.26194         131.953          11.503 
        2.27765          130.61         11.3102 
        2.29341         129.308         11.1214 
        2.30914         127.503         10.9372 
        2.32486         125.783         10.7574 
        2.34061         123.988         10.5813 
        2.35635         122.379         10.4093 
        2.37203         121.332         10.2417 
        2.38768         119.373         10.0782 
        2.40339         118.106         9.91759 
        2.41914         116.529         9.76016 
        2.43483         115.521         9.60671 
         2.4505         114.097         9.45681 
        2.46622          112.61         9.30961 
        2.48195         110.836         9.16553 
        2.49759         109.325         9.02527 
        2.51328         108.704         8.88758 
        2.52906         107.144          8.7519 
        2.54479         105.729         8.61955 
        2.56049         104.764         8.49021 
        2.57618         103.336         8.36363 
        2.59189         102.735         8.23944 
        2.60758         101.054         8.11798 
        2.62325         99.5389         7.99911 
        2.63898         98.3249          7.8822 
        2.65468         97.3921         7.76788 
        2.67044         96.2935         7.65535 
        2.68618         95.1303          7.5453 
        2.70184         94.3343         7.43785 
        2.71755         93.0749         7.33224 
        2.73329         91.7546         7.22851 
        2.74897         91.1305         7.12713 
        2.76462         89.8315         7.02791 
        2.78034         89.0486         6.93018 
        2.79607         87.7398         6.83421 
        2.81179         86.9556         6.74016 
        2.82749         85.8652         6.64799 
        2.84321         84.9092         6.55744 
        2.85893         83.9888         6.46861 
        2.87462         82.9316         6.38157 
        2.89033         82.0803         6.29606 
        2.90605         81.3476         6.21204 
        2.92176         79.9677         6.12959 
        2.93747         79.4148         6.04869 
        2.95318         78.3699         5.96923 
        2.96891         77.8111         5.89116 
        2.98456         76.8415         5.81483 
        3.00023         75.8687         5.73975 
        3.01596         74.7546         5.66575 
        3.03164         74.2692         5.59328 
        3.04738         73.4051         5.52186 
         3.0631         72.5669         5.45171 
        3.07883          71.891         5.38278 
        3.09456         71.3861         5.31505 
        3.11026         70.3136         5.24859 
        3.12596         69.5503         5.18327 
        3.14163         68.9144         5.11922 
        3.15734         68.1267          5.0561 
        3.17308         67.4179         4.99389 
        3.18879          66.686          4.9329 
        3.20447         66.1371         4.87302 
         3.2202         65.3493         4.81394 
         3.2359         64.5268         4.75595 
        3.25157          63.757         4.69906 
        3.26729         63.4043         4.64292 
        3.28304         62.7504         4.58759 
        3.29877         61.8027         4.53323 
        3.31446         61.2627         4.47988 
        3.33014          60.717         4.42743 
        3.34585         59.9408         4.37573 
        3.36158         59.3639         4.32479 
        3.37727         59.0313         4.27482 
        3.39294         58.2129         4.22568 
        3.40867          57.805         4.17714 
        3.42439         57.1078         4.12939 
        3.44008         56.5394         4.08247 
        3.45578         55.7972         4.03626 
        3.47153         55.3612         3.99065 
        3.48724         55.0158         3.94583 
        3.50292         54.4707          3.9018 
        3.51859         53.8692         3.85847 
        3.53431         53.3891         3.81566 
        3.55007         52.8438         3.77339 
        3.56577          52.409         3.73193 
        3.58146         51.7386         3.69111 
        3.59719          51.345         3.65081 
        3.61292         50.7857         3.61112 
        3.62859         50.1776         3.57217 
        3.64429         49.8015         3.53373 
        3.66003          49.401         3.49573 
        3.67578         48.9915          3.4583 
        3.69146         48.3753         3.42156 
        3.70712          47.813         3.38543 
        3.72284          47.468         3.34968 
        3.73853         46.9992          3.3145 
        3.75422         46.5228         3.27982 
        3.76993         45.9655         3.24561 
        3.78564         45.6506          3.2119 
        3.80137         45.2788         3.17861 
        3.81707         44.8413         3.14587 
        3.83279         44.3088         3.11356 
        3.84853         44.1353         3.08165 
        3.86424         43.6312         3.05025 
        3.87992         43.1409         3.01933 
        3.89561         42.7945         2.98884 
        3.91134         42.4086         2.95871 
        3.92704         41.9934         2.92903 
        3.94273         41.4612         2.89979 
        3.95845         41.1505         2.87089 
        3.97418         40.8966         2.84238 
        3.98988         40.4665         2.81429 
        4.00554          40.145         2.78666 
        4.02125         39.6838         2.75933 
        4.03698         39.3372         2.73231 
        4.05268         38.8927         2.70572 
        4.06839          38.696         2.67947 
         4.0841         38.2801         2.65357 
        4.09983         38.0918         2.62798 
        4.11555         37.6403         2.60273 
        4.13124         37.2908         2.57788 
        4.14693         36.9445         2.55334 
        4.16266         36.7071         2.52906 
        4.17839          36.335         2.50511 
        4.19408         35.9481         2.48153 
        4.20977         35.7088         2.45824 
        4.22551         35.2968         2.43519 
        4.24123         35.0474         2.41246 
        4.25691         34.7333         2.39008 
        4.27259         34.4252         2.36798 
        4.28831         34.1655         2.34612 
        4.30404         33.8614         2.32451 
        4.31974         33.5562         2.30322 
        4.33543         33.1963          2.2822 
        4.35116         32.9555          2.2614 
        4.36688         32.7734         2.24087 
        4.38255         32.4412         2.22067 
        4.39825         32.1418         2.20067 
        4.41398         31.9019         2.18088 
         4.4297         31.5661         2.16135 
        4.44541         31.4256         2.14207 
        4.46111         30.9851         2.12303 
        4.47683         30.7307         2.10422 
        4.49251         30.5385         2.08567 
        4.50819         30.2558         2.06735 
         4.5239         30.0281         2.04922 
        4.53962         29.7509         2.03128 
        4.55535         29.4974         2.01356 
        4.57106         29.2599         1.99607 
        4.58678         29.0719         1.97878 
         4.6025         28.7453         1.96169 
        4.61821          28.548         1.94481 
        4.63391         28.2821         1.92815 
         4.6496         28.0731         1.91169 
        4.66532         27.8287          1.8954 
        4.68103         27.6564          1.8793 
        4.69673         27.3581         1.86341 
        4.71241         27.2083         1.84771 
        4.72811         26.9699         1.83217 
        4.74384         26.7312         1.81679 
        4.75955         26.4799         1.80161 
        4.77525         26.2894         1.78661 
        4.79096         26.1647         1.77177 
        4.80669         25.8247         1.75708 
         4.8224         25.6898         1.74258 
        4.83809         25.4754         1.72826 
        4.85379         25.2822         1.71409 
         4.8695         25.0251         1.70006 
        4.88521         24.8481          1.6862 
        4.90093         24.6871          1.6725 
        4.91663         24.4653         1.65895 
        4.93234         24.2284         1.64554 
        4.94807         24.1295         1.63228 
        4.96377         23.8832         1.61918 
        4.97943         23.7313         1.60625 
        4.99514         23.5165         1.59343 
        5.01086         23.3316         1.58074 
        5.02654          23.116         1.56823 
        5.04227         22.9763         1.55581 
          5.058         22.8015         1.54352 
        5.07371         22.6255         1.53138 
        5.08942         22.4019         1.51938 
        5.10513         22.2486          1.5075 
        5.12084         22.1187         1.49574 
        5.13656         21.9262         1.48411 
        5.15225         21.7838         1.47263 
        5.16796         21.5859         1.46124 
        5.18369         21.4272         1.44997 
         5.1994         21.2459         1.43884 
        5.21509         21.0968         1.42783 
        5.23079          20.902         1.41692 
        5.24649          20.769         1.40614 
        5.26217         20.5937         1.39548 
        5.27788         20.4458         1.38491 
        5.29359         20.2922         1.37445 
        5.30933         20.1539         1.36409 
        5.32504         19.9748         1.35384 
        5.34073         19.8255         1.34372 
        5.35646          19.716         1.33367 
        5.37218         19.5136         1.32373 
        5.38789         19.3887         1.31391 
        5.40357         19.2545         1.30419 
        5.41929         19.1137         1.29455 
        5.43502         18.9572         1.28501 
         5.4507         18.8527         1.27559 
        5.46639          18.665         1.26626 
        5.48212         18.5353           1.257 
        5.49786         18.4088         1.24783 
        5.51353         18.2317         1.23879 
        5.52921         18.1226         1.22983 
        5.54495         17.9976         1.22093 
        5.56066         17.8662         1.21213 
        5.57637         17.7011         1.20342 
        5.59207         17.5809          1.1948 
        5.60778         17.4696         1.18627 
        5.62346         17.3181         1.17783 
        5.63916         17.2646         1.16946 
        5.65487         17.0947         1.16117 
         5.6706         16.9736         1.15295 
        5.68633          16.834         1.14481 
        5.70203         16.7066         1.13676 
        5.71773         16.6397         1.12879 
        5.73344         16.4967         1.12089 
        5.74916         16.3834         1.11306 
        5.76486         16.2512         1.10532 
        5.78054         16.1404         1.09766 
        5.79626         16.0504         1.09005 
          5.812         15.9179         1.08251 
         5.8277         15.8264         1.07506 
        5.84339         15.7104         1.06768 
        5.85911         15.5772         1.06036 
        5.87484          15.476         1.05311 
        5.89053         15.3509         1.04593 
        5.90623         15.2631         1.03883 
        5.92195         15.1852         1.03177 
        5.93767         15.0342         1.02479 
        5.95336         14.9322         1.01788 
        5.96905         14.8366         1.01103 
        5.98476         14.7214         1.00424 
        6.00048         14.6326        0.997515 
        6.01617         14.5428        0.990857 
        6.03185         14.4171        0.984267 
        6.04756         14.2995        0.977721 
        6.06331         14.1995        0.971221 
        6.07903         14.1108        0.964793 
        6.09473         13.9987        0.958429 
        6.11044         13.8857        0.952118 
        6.12616         13.7968        0.945864 
        6.14186         13.6961        0.939672 
        6.15755         13.6421        0.933536 
        6.17326         13.5181         0.92745 
        6.18898         13.4557        0.921416 
        6.20467         13.3634        0.915445 
        6.22036         13.2551        0.909529 
         6.2361         13.1699        0.903648 
         6.2518         13.0542        0.897829 
        6.26748         12.9895        0.892074 
        6.28319         12.8865        0.886354 
        6.29893         12.7927        0.880679 
        6.31463         12.7187        0.875063 
        6.33033         12.6509        0.869498 
        6.34604         12.5433        0.863977 
        6.36177         12.4648        0.858499 
        6.37747         12.3911        0.853079 
