# k  (h/Mpc)    Pcb(k)  (Mpc/h)^3    Pcb_linear(k) (Mpc/h)^3   ShotnoiseSubtracted = true
      0.0200456          6301.8         6401.84 
      0.0350414         4907.03         5019.69 
      0.0492313         3944.32         3977.14 
      0.0637834         3281.81         3234.05 
      0.0800726         2495.79         2443.01 
       0.096163         1881.01         1921.59 
       0.111083          1568.9         1626.62 
       0.126058         1368.85         1352.18 
       0.142273         1141.77         1100.32 
       0.158546         988.428         937.347 
        0.17375         819.856         815.523 
       0.188953         754.452         701.102 
       0.204907          697.64         606.904 
       0.220756          601.04         536.406 
        0.23588         531.905         476.445 
         0.2514         464.262         422.168 
       0.267535          439.49         376.502 
       0.283568         401.357          338.32 
       0.299022         372.361         305.512 
       0.314451         342.116         276.995 
       0.330372         316.489         251.856 
       0.346141         286.556         229.916 
       0.361624         272.678         210.722 
       0.377134         256.489         193.747 
       0.392932         236.413         178.451 
       0.408854          226.82          164.66 
       0.424564         217.868         152.444 
       0.440253         205.399         141.509 
       0.455999         193.906         131.623 
       0.471626         178.745         122.731 
        0.48727          174.49          114.65 
       0.502856         167.153         107.327 
       0.518488         163.125         100.625 
       0.534347         155.423          94.408 
       0.550082         144.349         88.7594 
       0.565732          139.66         83.6013 
       0.581496         133.816         78.8205 
       0.597222         129.763         74.4238 
       0.612804         123.679         70.3996 
       0.628434         120.948         66.6632 
       0.644267         116.867         63.1557 
       0.660051         114.205         59.9111 
       0.675724         110.602         56.9155 
       0.691403         107.288         54.1244 
       0.707174         103.321         51.5064 
       0.722871         101.362         49.0733 
        0.73838         99.2745         46.8243 
       0.754018         94.6063         44.6998 
       0.769845         92.8379         42.6845 
        0.78569         90.6308         40.7918 
       0.801365         87.7635         39.0328 
       0.817031         84.9265         37.3789 
       0.832809         83.8924         35.8105 
       0.848511         80.6648         34.3394 
       0.864097         78.4637         32.9613 
       0.879701         77.7156         31.6577 
       0.895507         76.1494         30.4094 
       0.911279         74.8174         29.2313 
        0.92691         72.6933         28.1256 
       0.942635         70.6083         27.0713 
       0.958396         70.2712         26.0689 
       0.974128         68.4698         25.1194 
       0.989692         66.9037         24.2268 
        1.00528         65.7466         23.3764 
        1.02113         64.0601         22.5538 
        1.03692         62.6838         21.7739 
        1.05264         62.0779         21.0348 
        1.06832         60.6965         20.3312 
        1.08405         59.9038         19.6581 
        1.09979         59.0173         19.0153 
        1.11537         56.8579         18.4076 
        1.13105         57.1813         17.8231 
        1.14679         56.0674         17.2617 
        1.16256          54.953         16.7236 
        1.17828         53.6063         16.2102 
        1.19395         53.0778         15.7203 
         1.2097         52.0704         15.2481 
        1.22537         51.7819         14.7977 
          1.241         50.4598          14.367 
        1.25666          49.457         13.9523 
        1.27241         49.1581         13.5521 
        1.28819         47.8991         13.1671 
        1.30392         47.1705         12.7981 
        1.31957         46.9121          12.445 
        1.33529         46.3235         12.1039 
        1.35108         45.6709         11.7743 
        1.36674         44.8743         11.4594 
         1.3824           43.88         11.1563 
        1.39811         43.6698         10.8633 
        1.41389          42.973         10.5796 
        1.42964         42.3002         10.3066 
        1.44531         41.8528         10.0446 
        1.46101         40.8211         9.79118 
        1.47667         40.7733         9.54728 
        1.49229         40.3766         9.31236 
        1.50793         39.5239          9.0851 
        1.52367         39.1414         8.86399 
        1.53953         38.7978         8.64877 
        1.55526         38.1025         8.44244 
        1.57092         37.7378         8.24371 
        1.58662         37.2272         8.05092 
        1.60235         36.8353         7.86394 
        1.61809         36.2238         7.68282 
        1.63369         35.7158         7.50902 
        1.64941         35.1749         7.33938 
        1.66519         34.8649         7.17437 
        1.68085         34.5141         7.01563 
        1.69652         34.0768         6.86165 
        1.71228         33.8295         6.71143 
        1.72806         33.2438          6.5656 
        1.74368         32.8325         6.42557 
        1.75933         32.4461         6.28936 
        1.77505          32.227         6.15647 
        1.79081         31.6641         6.02719 
         1.8065         31.3759         5.90218 
        1.82218         31.0473         5.78084 
        1.83797         30.6522         5.66208 
        1.85367         30.2583         5.54733 
        1.86928         29.9771         5.43644 
        1.88497         29.5051         5.32799 
        1.90073         29.4694         5.22211 
        1.91647         28.9563          5.1192 
        1.93218         28.6778         5.01928 
        1.94787         28.4251         4.92219 
        1.96363         28.1708         4.82728 
        1.97935         27.8314         4.73507 
        1.99499         27.4727          4.6458 
        2.01064         27.2392         4.55871 
         2.0264         26.7986          4.4733 
        2.04216          26.528         4.39013 
        2.05781         26.3171          4.3096 
        2.07353         26.0415          4.2308 
        2.08928         25.9446         4.15381 
        2.10499         25.6031         4.07894 
        2.12065         25.1694         4.00614 
        2.13633         25.0278         3.93506 
        2.15211         24.5901         3.86525 
        2.16785         24.4433         3.79733 
        2.18349          24.308         3.73147 
        2.19916         23.9744         3.66704 
        2.21489         23.6706         3.60391 
        2.23063         23.5348         3.54223 
         2.2463         23.3361         3.48228 
        2.26194         23.0989         3.42386 
        2.27765         22.7876         3.36648 
        2.29341         22.5077         3.31028 
        2.30914         22.4008         3.25547 
        2.32486         22.1851         3.20193 
        2.34061         21.9073         3.14951 
        2.35635         21.6148         3.09832 
        2.37203         21.4983         3.04844 
        2.38768         21.2953         2.99976 
        2.40339         21.1246         2.95197 
        2.41914          20.885         2.90511 
        2.43483         20.6148         2.85943 
         2.4505         20.4213         2.81482 
        2.46622         20.2075           2.771 
        2.48195         20.0109         2.72812 
        2.49759         19.8304         2.68637 
        2.51328         19.6403         2.64538 
        2.52906         19.4995           2.605 
        2.54479         19.2559         2.56561 
        2.56049         19.0477         2.52711 
        2.57618         18.9176         2.48943 
        2.59189          18.763         2.45247 
        2.60758          18.593         2.41631 
        2.62325         18.4097         2.38093 
        2.63898         18.2499         2.34614 
        2.65468         18.1219         2.31211 
        2.67044          17.876         2.27861 
        2.68618         17.7535         2.24586 
        2.70184         17.6082         2.21387 
        2.71755          17.368         2.18244 
        2.73329         17.2481         2.15156 
        2.74897         17.0149         2.12139 
        2.76462         17.0705         2.09186 
        2.78034         16.8192         2.06277 
        2.79607           16.64          2.0342 
        2.81179          16.529         2.00621 
        2.82749         16.3894         1.97877 
        2.84321         16.2239         1.95182 
        2.85893          16.072         1.92538 
        2.87462         15.8881         1.89947 
        2.89033         15.7526         1.87402 
        2.90605         15.6394         1.84901 
        2.92176         15.4512         1.82447 
        2.93747         15.3432         1.80039 
        2.95318         15.1965         1.77674 
        2.96891         15.0305          1.7535 
        2.98456         14.9376         1.73078 
        3.00023         14.8421         1.70843 
        3.01596         14.6786         1.68641 
        3.03164         14.5637         1.66484 
        3.04738         14.3879         1.64358 
         3.0631         14.2885          1.6227 
        3.07883          14.137         1.60218 
        3.09456         14.0199         1.58202 
        3.11026         13.8853         1.56224 
        3.12596         13.7739          1.5428 
        3.14163         13.6872         1.52373 
        3.15734         13.5222         1.50495 
        3.17308         13.4211         1.48643 
        3.18879         13.3212         1.46828 
        3.20447          13.184         1.45045 
         3.2202         13.0632         1.43287 
         3.2359         12.9874         1.41561 
        3.25157         12.8803         1.39867 
        3.26729         12.7055         1.38196 
        3.28304         12.6356         1.36549 
        3.29877         12.5168         1.34932 
        3.31446         12.4099         1.33343 
        3.33014         12.2776         1.31782 
        3.34585         12.2066         1.30244 
        3.36158         12.1107         1.28727 
        3.37727          12.007          1.2724 
        3.39294         11.9125         1.25777 
        3.40867         11.7469         1.24332 
        3.42439         11.7002         1.22911 
        3.44008         11.6024         1.21515 
        3.45578         11.5238         1.20139 
        3.47153          11.421         1.18782 
        3.48724         11.3255         1.17447 
        3.50292         11.1846         1.16137 
        3.51859         11.1441         1.14847 
        3.53431         11.0411         1.13573 
        3.55007         10.9662         1.12315 
        3.56577         10.8673         1.11081 
        3.58146         10.7823         1.09866 
        3.59719         10.6522         1.08666 
        3.61292         10.5974         1.07485 
        3.62859         10.4633         1.06326 
        3.64429         10.4058         1.05181 
        3.66003         10.3301          1.0405 
        3.67578         10.2181         1.02936 
        3.69146         10.1646         1.01843 
        3.70712         10.0689         1.00767 
        3.72284         9.97978         0.99703 
        3.73853         9.91482        0.986561 
        3.75422         9.84721        0.976239 
        3.76993          9.7476        0.966055 
        3.78564         9.64726        0.956021 
        3.80137         9.60496        0.946113 
        3.81707         9.49771        0.936366 
        3.83279         9.43544        0.926749 
        3.84853         9.35458        0.917251 
        3.86424         9.26965        0.907905 
        3.87992         9.19328        0.898703 
        3.89561         9.14552        0.889628 
        3.91134         9.08884        0.880659 
        3.92704         8.99302        0.871825 
        3.94273         8.93391         0.86312 
        3.95845          8.8593        0.854519 
        3.97418         8.76191        0.846033 
        3.98988         8.71626        0.837673 
        4.00554         8.62474         0.82945 
        4.02125         8.57349        0.821313 
        4.03698         8.50794        0.813272 
        4.05268         8.44917        0.805358 
        4.06839         8.35661        0.797543 
         4.0841         8.31268        0.789834 
        4.09983         8.24695        0.782216 
        4.11555          8.1816        0.774701 
        4.13124          8.1073        0.767306 
        4.14693         8.03314        0.760001 
        4.16266          7.9896        0.752775 
        4.17839         7.91957        0.745646 
        4.19408          7.8614        0.738626 
        4.20977         7.79576        0.731694 
        4.22551         7.73562        0.724833 
        4.24123         7.67772        0.718068 
        4.25691         7.61138        0.711408 
        4.27259         7.55311        0.704829 
        4.28831         7.49669        0.698321 
        4.30404         7.43508        0.691889 
        4.31974         7.37029        0.685552 
        4.33543         7.30748        0.679297 
        4.35116         7.26853        0.673106 
        4.36688         7.21754        0.666994 
        4.38255          7.1499        0.660981 
        4.39825         7.07974        0.655029 
        4.41398         7.05309        0.649138 
         4.4297         6.99521        0.643326 
        4.44541         6.93152        0.637586 
        4.46111         6.89351         0.63192 
        4.47683         6.82375         0.62632 
        4.49251         6.79933        0.620798 
        4.50819         6.74016        0.615345 
         4.5239         6.68321        0.609949 
        4.53962         6.63748        0.604611 
        4.55535         6.58499        0.599334 
        4.57106         6.52454        0.594128 
        4.58678         6.47466        0.588983 
         4.6025         6.43961        0.583897 
        4.61821         6.37571        0.578872 
        4.63391         6.33199        0.573913 
         4.6496         6.27916        0.569014 
        4.66532         6.25516        0.564164 
        4.68103         6.17254        0.559373 
        4.69673         6.14792        0.554643 
        4.71241         6.10548        0.549971 
        4.72811         6.04186        0.545346 
        4.74384         6.01073        0.540768 
        4.75955         5.95069         0.53625 
        4.77525          5.9299        0.531785 
        4.79096         5.88217        0.527366 
        4.80669          5.8409        0.522995 
         4.8224         5.80608        0.518679 
        4.83809         5.74297        0.514416 
        4.85379         5.69785        0.510198 
         4.8695         5.66964        0.506024 
        4.88521         5.62404        0.501898 
        4.90093         5.57867        0.497818 
        4.91663         5.54467        0.493787 
        4.93234         5.50791        0.489796 
        4.94807          5.4633        0.485846 
        4.96377         5.42522        0.481948 
        4.97943         5.38482          0.4781 
        4.99514         5.34859        0.474285 
        5.01086          5.3008        0.470508 
        5.02654         5.27896        0.466782 
        5.04227         5.23006        0.463085 
          5.058         5.19682        0.459427 
        5.07371         5.16052        0.455815 
        5.08942         5.12826        0.452242 
        5.10513         5.09737        0.448706 
        5.12084         5.07137        0.445207 
        5.13656         5.02863        0.441745 
        5.15225          4.9911        0.438326 
        5.16796         4.95947        0.434938 
        5.18369          4.9157        0.431583 
         5.1994         4.88909        0.428269 
        5.21509         4.85182        0.424993 
        5.23079         4.82144        0.421747 
        5.24649         4.78847        0.418538 
        5.26217         4.75159        0.415364 
        5.27788         4.71899        0.412218 
        5.29359          4.6872        0.409105 
        5.30933         4.65924        0.406019 
        5.32504         4.63148        0.402971 
        5.34073         4.58393        0.399957 
        5.35646         4.55611        0.396967 
        5.37218         4.52471        0.394008 
        5.38789         4.50014        0.391083 
        5.40357         4.45493        0.388192 
        5.41929         4.44155        0.385323 
        5.43502         4.41986        0.382483 
         5.4507         4.37313        0.379679 
        5.46639         4.34356        0.376902 
        5.48212         4.31577        0.374147 
        5.49786         4.28556        0.371415 
        5.51353         4.25919        0.368725 
        5.52921         4.22888        0.366058 
        5.54495         4.19766         0.36341 
        5.56066         4.17604        0.360791 
        5.57637         4.15406        0.358198 
        5.59207         4.12556        0.355633 
        5.60778         4.09587        0.353092 
        5.62346         4.06283        0.350579 
        5.63916         4.03961        0.348089 
        5.65487         4.00871        0.345621 
         5.6706          3.9817        0.343175 
        5.68633         3.96634        0.340751 
        5.70203         3.93759        0.338355 
        5.71773         3.91654        0.335983 
        5.73344         3.89199        0.333633 
        5.74916         3.86176        0.331303 
        5.76486         3.83635        0.328998 
        5.78054         3.80856        0.326718 
        5.79626         3.78851        0.324454 
          5.812         3.76404        0.322209 
         5.8277         3.74544        0.319992 
        5.84339          3.7182        0.317796 
        5.85911         3.69806        0.315616 
        5.87484          3.6738        0.313457 
        5.89053         3.65376        0.311322 
        5.90623         3.62315        0.309206 
        5.92195         3.60272        0.307106 
        5.93767         3.58564        0.305027 
        5.95336          3.5596        0.302971 
        5.96905         3.53087        0.300934 
        5.98476         3.51597        0.298913 
        6.00048         3.49457         0.29691 
        6.01617         3.47364        0.294928 
        6.03185         3.44682        0.292967 
        6.04756         3.43509        0.291018 
        6.06331         3.40593        0.289083 
        6.07903         3.38781         0.28717 
        6.09473         3.36875        0.285276 
        6.11044         3.34412        0.283397 
        6.12616         3.32944        0.281536 
        6.14186         3.30527        0.279693 
        6.15755          3.2894        0.277867 
        6.17326         3.26924        0.276055 
        6.18898         3.24472        0.274259 
        6.20467         3.22802        0.272482 
        6.22036         3.21054        0.270721 
         6.2361         3.18757        0.268971 
         6.2518         3.17169        0.267239 
        6.26748         3.15196        0.265526 
        6.28319         3.13397        0.263823 
        6.29893          3.1091        0.262134 
        6.31463         3.09854        0.260462 
        6.33033         3.07404        0.258806 
        6.34604          3.0552        0.257162 
        6.36177         3.03782        0.255532 
        6.37747         3.02627        0.253919 
