# k  (h/Mpc)    Pcb(k)  (Mpc/h)^3    Pcb_linear(k) (Mpc/h)^3   ShotnoiseSubtracted = true
      0.0200456         24998.2         25421.3 
      0.0350414         20477.3         19932.9 
      0.0492313         15226.6           15793 
      0.0637834         12015.9         12842.2 
      0.0800726         9071.87         9701.05 
       0.096163         7764.16          7630.5 
       0.111083         6605.46          6459.2 
       0.126058         5269.06         5369.44 
       0.142273         4559.82         4369.31 
       0.158546         3865.15         3722.14 
        0.17375         3531.82         3238.39 
       0.188953         3340.81         2784.03 
       0.204907         2881.51         2409.98 
       0.220756         2628.84         2130.04 
        0.23588         2368.45         1891.93 
         0.2514         2163.26          1676.4 
       0.267535         2072.38         1495.07 
       0.283568         1874.57         1343.45 
       0.299022         1792.06         1213.17 
       0.314451         1864.44         1099.93 
       0.330372         1691.55         1000.11 
       0.346141         1560.68          912.98 
       0.361624         1495.04         836.764 
       0.377134         1443.63         769.359 
       0.392932         1373.18         708.619 
       0.408854         1323.34         653.852 
       0.424564         1300.84         605.344 
       0.440253         1227.08         561.924 
       0.455999         1174.67         522.665 
       0.471626         1177.46         487.356 
        0.48727         1126.58         455.268 
       0.502856            1099         426.189 
       0.518488         1055.97         399.576 
       0.534347          1022.2         374.888 
       0.550082         985.477         352.458 
       0.565732         963.898         331.975 
       0.581496         939.336         312.991 
       0.597222         931.451         295.532 
       0.612804         906.627         279.552 
       0.628434         872.619         264.715 
       0.644267         851.849         250.787 
       0.660051          839.44         237.903 
       0.675724         828.322         226.008 
       0.691403         794.278         214.924 
       0.707174         777.791         204.529 
       0.722871         770.719         194.867 
        0.73838         748.894         185.936 
       0.754018         740.201           177.5 
       0.769845         724.282         169.497 
        0.78569         706.378         161.982 
       0.801365          687.82         154.997 
       0.817031         677.835         148.429 
       0.832809         664.419         142.201 
       0.848511         648.886          136.36 
       0.864097         642.783         130.887 
       0.879701         644.739         125.711 
       0.895507         621.534         120.754 
       0.911279         616.847         116.076 
        0.92691         602.381         111.685 
       0.942635         592.767         107.498 
       0.958396         583.611         103.518 
       0.974128         570.968         99.7476 
       0.989692         559.347          96.203 
        1.00528         551.487         92.8263 
        1.02113         539.952         89.5596 
        1.03692         531.215         86.4629 
        1.05264         525.134         83.5277 
        1.06832         514.709         80.7339 
        1.08405         508.548         78.0612 
        1.09979         497.604         75.5084 
        1.11537         486.927         73.0956 
        1.13105         481.431         70.7743 
        1.14679         472.917         68.5452 
        1.16256         468.072         66.4083 
        1.17828         460.604         64.3698 
        1.19395         451.027         62.4242 
         1.2097         442.506         60.5493 
        1.22537         437.373         58.7608 
          1.241         428.609         57.0502 
        1.25666         422.336         55.4037 
        1.27241         419.172         53.8147 
        1.28819         409.804         52.2855 
        1.30392         405.766         50.8204 
        1.31957         397.821         49.4182 
        1.33529         393.387         48.0639 
        1.35108         392.539         46.7551 
        1.36674           382.7         45.5046 
         1.3824         373.454         44.3011 
        1.39811         371.555         43.1373 
        1.41389         366.595          42.011 
        1.42964         359.587         40.9269 
        1.44531         353.706         39.8865 
        1.46101          344.55         38.8802 
        1.47667         344.115         37.9116 
        1.49229         340.418         36.9788 
        1.50793         332.292         36.0764 
        1.52367         326.462         35.1983 
        1.53953         322.465         34.3437 
        1.55526         316.446         33.5244 
        1.57092         312.001         32.7352 
        1.58662         308.157         31.9697 
        1.60235         303.246         31.2272 
        1.61809          299.28          30.508 
        1.63369         294.946         29.8178 
        1.64941         291.196         29.1442 
        1.66519         287.141          28.489 
        1.68085          281.15         27.8586 
        1.69652         277.551         27.2472 
        1.71228         273.685         26.6507 
        1.72806         270.288         26.0716 
        1.74368         267.261         25.5155 
        1.75933         264.104         24.9747 
        1.77505         259.168         24.4469 
        1.79081         255.437         23.9336 
         1.8065         253.727         23.4372 
        1.82218         247.521         22.9553 
        1.83797         245.064         22.4838 
        1.85367         240.704         22.0281 
        1.86928         236.851         21.5878 
        1.88497         234.403         21.1571 
        1.90073         232.056         20.7366 
        1.91647         228.631          20.328 
        1.93218         224.855         19.9312 
        1.94787         220.593         19.5457 
        1.96363         219.457         19.1688 
        1.97935         214.839         18.8027 
        1.99499         213.023         18.4482 
        2.01064          208.01         18.1023 
         2.0264         206.992         17.7632 
        2.04216         203.279         17.4329 
        2.05781         200.943         17.1131 
        2.07353         199.535         16.8002 
        2.08928         196.781         16.4945 
        2.10499         193.762         16.1972 
        2.12065         191.168         15.9081 
        2.13633         188.445         15.6259 
        2.15211         186.006         15.3487 
        2.16785         183.805          15.079 
        2.18349           181.2         14.8174 
        2.19916         180.013         14.5616 
        2.21489         176.767         14.3109 
        2.23063         175.112          14.066 
         2.2463         172.951         13.8279 
        2.26194          170.02         13.5959 
        2.27765         168.249         13.3681 
        2.29341          166.07         13.1449 
        2.30914         163.681         12.9273 
        2.32486          162.17         12.7147 
        2.34061         159.281         12.5065 
        2.35635         157.228         12.3032 
        2.37203         156.334         12.1051 
        2.38768          153.73         11.9118 
        2.40339         151.751         11.7221 
        2.41914         150.089          11.536 
        2.43483         148.782         11.3546 
         2.4505         146.394         11.1775 
        2.46622         144.524         11.0035 
        2.48195         143.185         10.8332 
        2.49759         140.948         10.6674 
        2.51328         138.943         10.5047 
        2.52906         137.713         10.3443 
        2.54479         135.894         10.1879 
        2.56049         134.655          10.035 
        2.57618         132.797         9.88537 
        2.59189         131.741         9.73859 
        2.60758         130.842         9.59502 
        2.62325          128.56         9.45452 
        2.63898         126.333         9.31635 
        2.65468         125.357         9.18123 
        2.67044         124.348         9.04822 
        2.68618         122.231         8.91815 
        2.70184         121.338         8.79115 
        2.71755         119.431         8.66632 
        2.73329          118.22         8.54372 
        2.74897         116.464         8.42389 
        2.76462         115.433         8.30663 
        2.78034         113.876         8.19111 
        2.79607         113.022         8.07768 
        2.81179         111.552         7.96652 
        2.82749         110.122         7.85758 
        2.84321         109.053         7.75055 
        2.85893         107.944         7.64555 
        2.87462         106.176         7.54268 
        2.89033          105.54         7.44161 
        2.90605         104.113          7.3423 
        2.92176         102.423         7.24486 
        2.93747         101.867         7.14923 
        2.95318         100.983         7.05531 
        2.96891         99.6853         6.96304 
        2.98456         98.5407         6.87283 
        3.00023         97.4819         6.78408 
        3.01596         96.4504         6.69662 
        3.03164         95.5735         6.61096 
        3.04738         94.4054         6.52655 
         3.0631         93.4046         6.44363 
        3.07883         92.5569         6.36216 
        3.09456         91.4385         6.28211 
        3.11026          90.671         6.20355 
        3.12596         89.2023         6.12635 
        3.14163         88.5705         6.05065 
        3.15734         87.5382         5.97604 
        3.17308         86.4632         5.90252 
        3.18879         85.9834         5.83043 
        3.20447         84.7067         5.75965 
         3.2202         83.6881         5.68983 
         3.2359         83.2572         5.62129 
        3.25157         82.6129         5.55404 
        3.26729         81.3937         5.48769 
        3.28304         80.8311         5.42229 
        3.29877         79.7439         5.35804 
        3.31446         79.1334         5.29498 
        3.33014         78.5762         5.23298 
        3.34585         77.5547         5.17189 
        3.36158         76.6058         5.11168 
        3.37727         76.0004         5.05261 
        3.39294          75.269         4.99453 
        3.40867         74.1992         4.93716 
        3.42439         73.3328         4.88072 
        3.44008         72.7403         4.82527 
        3.45578         72.4041         4.77064 
        3.47153         71.4713         4.71674 
        3.48724         70.7744         4.66376 
        3.50292         70.2176         4.61173 
        3.51859         69.3816         4.56051 
        3.53431         68.7347          4.5099 
        3.55007         68.1166         4.45995 
        3.56577         67.3944         4.41095 
        3.58146         66.6627          4.3627 
        3.59719          66.047         4.31506 
        3.61292         65.5189         4.26816 
        3.62859         64.7711         4.22212 
        3.64429         64.3123         4.17668 
        3.66003         63.5965         4.13177 
        3.67578         62.8717         4.08753 
        3.69146         62.3144         4.04411 
        3.70712         61.6212         4.00139 
        3.72284         61.3048         3.95914 
        3.73853         60.4906         3.91757 
        3.75422         60.1506         3.87658 
        3.76993         59.4648         3.83614 
        3.78564         59.0558          3.7963 
        3.80137         58.3696         3.75695 
        3.81707         57.7468         3.71825 
        3.83279         57.3158         3.68006 
        3.84853         56.8888         3.64234 
        3.86424         56.2524         3.60523 
        3.87992         55.6296         3.56869 
        3.89561         55.2696         3.53265 
        3.91134         54.8631         3.49704 
        3.92704         54.2288         3.46196 
        3.94273         53.5443          3.4274 
        3.95845         53.1338         3.39324 
        3.97418         52.7038         3.35954 
        3.98988         52.3917         3.32635 
        4.00554          51.645         3.29369 
        4.02125         51.2821         3.26138 
        4.03698         50.9279         3.22945 
        4.05268         50.3772         3.19802 
        4.06839          49.915         3.16699 
         4.0841         49.4818         3.13638 
        4.09983         48.9508         3.10613 
        4.11555         48.6206         3.07629 
        4.13124         48.1172         3.04692 
        4.14693         47.8157         3.01792 
        4.16266         47.4501         2.98922 
        4.17839         46.8716         2.96091 
        4.19408         46.5421         2.93304 
        4.20977         46.0284         2.90551 
        4.22551         45.6282         2.87827 
        4.24123         45.2898          2.8514 
        4.25691         44.7522         2.82495 
        4.27259         44.5246         2.79883 
        4.28831         44.1026         2.77299 
        4.30404         43.7917         2.74745 
        4.31974          43.368         2.72228 
        4.33543         42.9124         2.69745 
        4.35116         42.6202         2.67286 
        4.36688         42.1881         2.64859 
        4.38255          41.832         2.62471 
        4.39825         41.4612         2.60108 
        4.41398         41.1482         2.57768 
         4.4297         40.7154         2.55461 
        4.44541          40.514         2.53181 
        4.46111         40.0394         2.50932 
        4.47683         39.8065         2.48708 
        4.49251         39.4742         2.46515 
        4.50819         39.2216         2.44349 
         4.5239         38.8935         2.42207 
        4.53962         38.3795         2.40087 
        4.55535         38.1599         2.37992 
        4.57106         37.9015         2.35924 
        4.58678         37.5511         2.33881 
         4.6025         37.2135         2.31862 
        4.61821         36.9089         2.29866 
        4.63391         36.5755         2.27897 
         4.6496         36.3483         2.25952 
        4.66532          36.019         2.24026 
        4.68103         35.7293         2.22124 
        4.69673         35.3274         2.20245 
        4.71241         35.1819          2.1839 
        4.72811         34.8984         2.16553 
        4.74384         34.5108         2.14736 
        4.75955         34.2426         2.12941 
        4.77525         33.9695         2.11168 
        4.79096         33.7299         2.09414 
        4.80669         33.4292         2.07678 
         4.8224         33.1981         2.05964 
        4.83809         32.9465         2.04271 
        4.85379            32.6         2.02596 
         4.8695         32.4443         2.00939 
        4.88521         32.1029         1.99301 
        4.90093          31.854          1.9768 
        4.91663         31.5846          1.9608 
        4.93234         31.3207         1.94495 
        4.94807         31.1333         1.92926 
        4.96377         30.9175         1.91378 
        4.97943         30.5749          1.8985 
        4.99514         30.3149         1.88335 
        5.01086         30.1268         1.86836 
        5.02654         29.8525         1.85356 
        5.04227          29.638         1.83888 
          5.058         29.4568         1.82435 
        5.07371         29.2173         1.81001 
        5.08942         28.9576         1.79582 
        5.10513         28.7548         1.78178 
        5.12084         28.5855         1.76789 
        5.13656         28.3332         1.75414 
        5.15225          28.082         1.74057 
        5.16796         27.8886         1.72711 
        5.18369         27.6027         1.71379 
         5.1994         27.4798         1.70063 
        5.21509         27.2005         1.68762 
        5.23079         27.0099         1.67473 
        5.24649         26.7897         1.66199 
        5.26217         26.5786         1.64938 
        5.27788         26.3502         1.63689 
        5.29359         26.2007         1.62453 
        5.30933         25.9276         1.61228 
        5.32504         25.8116         1.60017 
        5.34073         25.5932          1.5882 
        5.35646         25.4193         1.57633 
        5.37218         25.2028         1.56458 
        5.38789         24.9803         1.55297 
        5.40357         24.8494         1.54149 
        5.41929         24.6587         1.53009 
        5.43502         24.4309         1.51882 
         5.4507         24.2895         1.50768 
        5.46639         24.0941         1.49665 
        5.48212         23.9118         1.48571 
        5.49786         23.7318         1.47487 
        5.51353         23.5592         1.46418 
        5.52921         23.3943         1.45359 
        5.54495         23.2311         1.44308 
        5.56066         23.0948         1.43268 
        5.57637         22.8334         1.42238 
        5.59207         22.7302          1.4122 
        5.60778         22.5326         1.40211 
        5.62346         22.3902         1.39213 
        5.63916         22.1933         1.38224 
        5.65487         22.0521         1.37244 
         5.6706         21.9275         1.36272 
        5.68633         21.7394          1.3531 
        5.70203         21.5504         1.34359 
        5.71773         21.3828         1.33417 
        5.73344         21.2639         1.32483 
        5.74916         21.1724         1.31558 
        5.76486          20.984         1.30643 
        5.78054          20.814         1.29738 
        5.79626         20.6831         1.28839 
          5.812         20.5533         1.27947 
         5.8277         20.3683         1.27067 
        5.84339         20.2123         1.26195 
        5.85911         20.0687         1.25329 
        5.87484         19.9657         1.24472 
        5.89053         19.7958         1.23624 
        5.90623         19.6387         1.22784 
        5.92195         19.4972          1.2195 
        5.93767         19.3547         1.21124 
        5.95336         19.2066         1.20308 
        5.96905         19.1216         1.19499 
        5.98476         18.9569         1.18696 
        6.00048         18.8584         1.17901 
        6.01617         18.6367         1.17114 
        6.03185          18.578         1.16335 
        6.04756         18.4837         1.15561 
        6.06331         18.3129         1.14793 
        6.07903         18.2065         1.14033 
        6.09473         18.0703         1.13281 
        6.11044         17.9259         1.12535 
        6.12616         17.8216         1.11796 
        6.14186         17.6852         1.11064 
        6.15755         17.6014         1.10339 
        6.17326         17.4211          1.0962 
        6.18898         17.3287         1.08906 
        6.20467         17.2109         1.08201 
        6.22036         17.0573         1.07502 
         6.2361         16.9875         1.06806 
         6.2518         16.8786         1.06119 
        6.26748         16.7482         1.05439 
        6.28319         16.6401         1.04762 
        6.29893         16.5254         1.04092 
        6.31463          16.409         1.03428 
        6.33033         16.2695          1.0277 
        6.34604         16.1933         1.02118 
        6.36177         16.0638          1.0147 
        6.37747         15.9591         1.00829 
