# k  (h/Mpc)    Pcb(k)  (Mpc/h)^3    Pcb_linear(k) (Mpc/h)^3   ShotnoiseSubtracted = true
      0.0200456         27055.5         27770.6 
      0.0350414         20521.1           21775 
      0.0492313         16581.6         17252.5 
      0.0637834         14159.4           14029 
      0.0800726           10751         10597.6 
       0.096163         7861.79         8335.66 
       0.111083         6625.18         7056.12 
       0.126058         5879.98         5865.65 
       0.142273         4993.48          4773.1 
       0.158546          4645.6         4066.12 
        0.17375         3787.88         3537.66 
       0.188953          3673.7         3041.31 
       0.204907         3443.74         2632.69 
       0.220756         3039.43         2326.88 
        0.23588         2754.55         2066.78 
         0.2514         2427.81         1831.33 
       0.267535         2442.05         1633.23 
       0.283568         2218.17          1467.6 
       0.299022         2123.25         1325.28 
       0.314451         2021.63         1201.58 
       0.330372         1846.01         1092.53 
       0.346141         1838.99         997.352 
       0.361624         1767.38         914.093 
       0.377134         1659.79         840.458 
       0.392932         1592.99         774.105 
       0.408854         1563.95         714.278 
       0.424564         1444.34         661.286 
       0.440253         1415.55         613.854 
       0.455999         1406.25         570.967 
       0.471626         1347.15         532.395 
        0.48727         1303.71         497.341 
       0.502856          1246.2         465.575 
       0.518488         1260.85         436.502 
       0.534347         1177.08         409.533 
       0.550082         1169.94          385.03 
       0.565732         1149.23         362.655 
       0.581496         1102.16         341.916 
       0.597222         1071.87         322.844 
       0.612804         1059.06         305.387 
       0.628434         1031.41         289.179 
       0.644267         1006.47         273.963 
       0.660051         987.979         259.889 
       0.675724         979.746         246.894 
       0.691403         953.701         234.786 
       0.707174         920.713          223.43 
       0.722871         896.958         212.875 
        0.73838         885.673         203.119 
       0.754018         870.904         193.904 
       0.769845         856.297         185.161 
        0.78569         845.288         176.951 
       0.801365         821.164         169.321 
       0.817031         809.049         162.146 
       0.832809          795.25         155.343 
       0.848511         779.428         148.961 
       0.864097         756.144         142.983 
       0.879701         743.516         137.328 
       0.895507         740.322         131.913 
       0.911279         730.741         126.803 
        0.92691         713.183         122.006 
       0.942635         693.248         117.433 
       0.958396         684.997         113.085 
       0.974128         675.576         108.966 
       0.989692         665.523         105.094 
        1.00528         643.763         101.405 
        1.02113         644.613         97.8361 
        1.03692         628.917         94.4533 
        1.05264         618.458         91.2468 
        1.06832         606.464         88.1949 
        1.08405         595.698         85.2751 
        1.09979         586.821         82.4864 
        1.11537         578.381         79.8506 
        1.13105         570.712         77.3148 
        1.14679         558.469         74.8798 
        1.16256         548.671         72.5453 
        1.17828         543.708         70.3185 
        1.19395         533.461          68.193 
         1.2097         519.371         66.1449 
        1.22537         513.221         64.1912 
          1.241         503.627         62.3225 
        1.25666         500.865         60.5238 
        1.27241         489.815         58.7879 
        1.28819         476.444         57.1174 
        1.30392         473.972         55.5169 
        1.31957         462.358         53.9851 
        1.33529         458.171         52.5056 
        1.35108         448.869          51.076 
        1.36674          441.43         49.7099 
         1.3824         436.734         48.3952 
        1.39811         426.741         47.1238 
        1.41389         423.011         45.8934 
        1.42964         418.508         44.7092 
        1.44531         413.527         43.5726 
        1.46101         404.631         42.4732 
        1.47667         395.819         41.4152 
        1.49229          393.38         40.3961 
        1.50793         381.399         39.4103 
        1.52367         380.992         38.4512 
        1.53953         370.259         37.5176 
        1.55526         370.103         36.6225 
        1.57092         366.453         35.7604 
        1.58662         358.624         34.9241 
        1.60235         353.353          34.113 
        1.61809         349.185         33.3273 
        1.63369          341.94         32.5734 
        1.64941         335.776         31.8375 
        1.66519         332.658         31.1218 
        1.68085         329.203         30.4331 
        1.69652          325.26         29.7652 
        1.71228         316.992         29.1136 
        1.72806         313.931          28.481 
        1.74368         307.661         27.8735 
        1.75933         304.658         27.2827 
        1.77505         299.185         26.7062 
        1.79081          296.44         26.1454 
         1.8065         290.892         25.6031 
        1.82218         288.219         25.0767 
        1.83797         284.228         24.5616 
        1.85367         279.529         24.0638 
        1.86928         274.336         23.5828 
        1.88497         272.311         23.1123 
        1.90073         267.818          22.653 
        1.91647          264.07         22.2066 
        1.93218         260.328         21.7732 
        1.94787         256.992          21.352 
        1.96363         253.945         20.9403 
        1.97935          249.24         20.5403 
        1.99499         246.181         20.1531 
        2.01064         242.931         19.7752 
         2.0264          239.85         19.4047 
        2.04216         238.116          19.044 
        2.05781          234.58         18.6946 
        2.07353         230.491         18.3528 
        2.08928          226.97         18.0188 
        2.10499         223.992         17.6941 
        2.12065         221.108         17.3783 
        2.13633         219.324         17.0699 
        2.15211         216.178         16.7671 
        2.16785         214.091         16.4725 
        2.18349         211.123         16.1868 
        2.19916         207.183         15.9073 
        2.21489         206.394         15.6334 
        2.23063         202.801         15.3659 
         2.2463         199.434         15.1058 
        2.26194         197.211         14.8524 
        2.27765         193.792         14.6035 
        2.29341         191.828         14.3597 
        2.30914         189.117         14.1219 
        2.32486         188.293         13.8897 
        2.34061         183.817         13.6623 
        2.35635         183.571         13.4402 
        2.37203         179.907         13.2238 
        2.38768         177.199         13.0127 
        2.40339         176.294         12.8054 
        2.41914          174.06         12.6021 
        2.43483         171.578          12.404 
         2.4505         169.481         12.2104 
        2.46622          167.83         12.0203 
        2.48195         165.475         11.8343 
        2.49759         163.841         11.6532 
        2.51328         161.358         11.4754 
        2.52906         159.756         11.3002 
        2.54479         158.278         11.1294 
        2.56049         156.174         10.9624 
        2.57618         154.492         10.7989 
        2.59189         152.428         10.6386 
        2.60758         150.144         10.4817 
        2.62325         148.852         10.3283 
        2.63898         146.738         10.1773 
        2.65468         145.648         10.0297 
        2.67044          144.32          9.8844 
        2.68618          142.32         9.74231 
        2.70184         140.391         9.60358 
        2.71755         138.923         9.46721 
        2.73329         136.644         9.33328 
        2.74897         135.985         9.20238 
        2.76462         134.266         9.07428 
        2.78034          132.81         8.94809 
        2.79607         131.369         8.82417 
        2.81179         130.228         8.70273 
        2.82749         128.623         8.58373 
        2.84321          126.43         8.46681 
        2.85893         125.146         8.35211 
        2.87462          123.91         8.23973 
        2.89033         122.275         8.12932 
        2.90605         121.745         8.02083 
        2.92176         119.684         7.91438 
        2.93747          118.67         7.80992 
        2.95318         117.539         7.70732 
        2.96891         116.233         7.60652 
        2.98456         114.773         7.50797 
        3.00023         113.971         7.41102 
        3.01596         112.509         7.31549 
        3.03164         111.365         7.22191 
        3.04738         109.949         7.12969 
         3.0631         108.893         7.03912 
        3.07883         107.621         6.95011 
        3.09456          106.37         6.86266 
        3.11026         105.993         6.77685 
        3.12596         104.221         6.69252 
        3.14163         103.276         6.60981 
        3.15734         102.491         6.52831 
        3.17308          101.18         6.44799 
        3.18879          99.996         6.36924 
        3.20447         99.1158         6.29192 
         3.2202          98.062         6.21565 
         3.2359         97.1904         6.14077 
        3.25157         96.0111         6.06731 
        3.26729         94.8742         5.99483 
        3.28304         94.1724         5.92339 
        3.29877         93.2045          5.8532 
        3.31446         92.0093         5.78431 
        3.33014         91.6291         5.71659 
        3.34585         90.3029         5.64984 
        3.36158         89.4095         5.58407 
        3.37727         88.3306         5.51954 
        3.39294         87.5178          5.4561 
        3.40867         86.6956         5.39342 
        3.42439          85.698         5.33177 
        3.44008         84.8236         5.27119 
        3.45578         84.0501         5.21152 
        3.47153         83.4658         5.15263 
        3.48724         82.3075         5.09476 
        3.50292         81.7885         5.03791 
        3.51859         80.9343         4.98196 
        3.53431         80.0729         4.92668 
        3.55007         79.3787         4.87211 
        3.56577          78.635         4.81858 
        3.58146         78.2059         4.76587 
        3.59719         77.0452         4.71384 
        3.61292         76.2185         4.66259 
        3.62859         75.5086         4.61231 
        3.64429         74.7612         4.56266 
        3.66003          74.131          4.5136 
        3.67578         73.3597         4.46527 
        3.69146         72.8781         4.41784 
        3.70712         72.2116         4.37118 
        3.72284         71.4721         4.32502 
        3.73853         70.7357         4.27961 
        3.75422         70.1014         4.23483 
        3.76993         69.5903         4.19066 
        3.78564         68.6581         4.14713 
        3.80137         68.2026         4.10415 
        3.81707          67.668         4.06187 
        3.83279         66.8359         4.02015 
        3.84853         66.3022         3.97895 
        3.86424         65.7933         3.93841 
        3.87992         65.3063         3.89849 
        3.89561         64.5128         3.85912 
        3.91134         63.8703         3.82022 
        3.92704         63.4288         3.78189 
        3.94273         62.8376         3.74414 
        3.95845          62.299         3.70682 
        3.97418         61.4664         3.67001 
        3.98988          61.106         3.63375 
        4.00554         60.5452         3.59807 
        4.02125         60.0756         3.56278 
        4.03698         59.5463          3.5279 
        4.05268         59.0033         3.49357 
        4.06839         58.4986         3.45966 
         4.0841         57.8966         3.42622 
        4.09983         57.4787         3.39318 
        4.11555         56.8653         3.36058 
        4.13124          56.364          3.3285 
        4.14693         55.9564         3.29681 
        4.16266         55.3804         3.26547 
        4.17839         54.9675         3.23454 
        4.19408         54.3935         3.20409 
        4.20977         53.9903         3.17402 
        4.22551         53.4787         3.14426 
        4.24123         52.9899         3.11491 
        4.25691         52.5531         3.08602 
        4.27259         52.0376         3.05748 
        4.28831         51.8068         3.02925 
        4.30404         51.1661         3.00135 
        4.31974         50.8661         2.97386 
        4.33543          50.382         2.94673 
        4.35116         49.8308         2.91987 
        4.36688         49.5437         2.89336 
        4.38255         49.0599         2.86727 
        4.39825          48.619         2.84145 
        4.41398         48.1973          2.8159 
         4.4297          47.863         2.79069 
        4.44541         47.3736         2.76579 
        4.46111         47.0395         2.74121 
        4.47683         46.5139         2.71692 
        4.49251         46.3671         2.69296 
        4.50819         45.8454         2.66931 
         4.5239         45.4838          2.6459 
        4.53962          45.072         2.62274 
        4.55535         44.8341         2.59986 
        4.57106         44.5456         2.57727 
        4.58678         44.1231         2.55495 
         4.6025         43.6379         2.53289 
        4.61821         43.2702         2.51109 
        4.63391         42.9801         2.48958 
         4.6496         42.4577         2.46833 
        4.66532         42.2235         2.44729 
        4.68103         41.9572         2.42651 
        4.69673         41.5746         2.40599 
        4.71241         41.2543         2.38572 
        4.72811         40.9398         2.36566 
        4.74384         40.5814          2.3458 
        4.75955         40.2683          2.3262 
        4.77525         39.9288         2.30683 
        4.79096         39.6515         2.28767 
        4.80669         39.3007          2.2687 
         4.8224         39.0379         2.24998 
        4.83809         38.6276         2.23149 
        4.85379         38.3206         2.21319 
         4.8695         38.0598         2.19508 
        4.88521         37.6894         2.17719 
        4.90093         37.3513         2.15949 
        4.91663         37.1813           2.142 
        4.93234         36.8559         2.12469 
        4.94807          36.538         2.10756 
        4.96377         36.2158         2.09064 
        4.97943         35.9709         2.07395 
        4.99514         35.6707          2.0574 
        5.01086         35.3967         2.04102 
        5.02654         35.1634         2.02486 
        5.04227         34.9091         2.00882 
          5.058         34.5961         1.99295 
        5.07371         34.3297         1.97728 
        5.08942         34.0685         1.96178 
        5.10513         33.8229         1.94644 
        5.12084         33.5336         1.93126 
        5.13656         33.3521         1.91625 
        5.15225         33.0648         1.90142 
        5.16796         32.7614         1.88672 
        5.18369         32.5098         1.87217 
         5.1994         32.3455         1.85779 
        5.21509         32.0204         1.84358 
        5.23079         31.8057          1.8295 
        5.24649         31.4988         1.81558 
        5.26217         31.2851         1.80181 
        5.27788         31.0995         1.78816 
        5.29359         30.8451         1.77466 
        5.30933         30.6265         1.76127 
        5.32504         30.3983         1.74805 
        5.34073         30.1526         1.73497 
        5.35646         29.9371         1.72201 
        5.37218         29.6548         1.70917 
        5.38789         29.4546         1.69648 
        5.40357         29.1846         1.68394 
        5.41929         28.9971          1.6715 
        5.43502         28.8068         1.65918 
         5.4507         28.6241         1.64701 
        5.46639         28.4057         1.63497 
        5.48212         28.1904         1.62301 
        5.49786         27.9869         1.61116 
        5.51353         27.7867         1.59949 
        5.52921         27.5093         1.58793 
        5.54495         27.4507         1.57644 
        5.56066         27.1881         1.56508 
        5.57637         26.9634         1.55383 
        5.59207          26.797          1.5427 
        5.60778          26.534         1.53168 
        5.62346         26.3537         1.52078 
        5.63916         26.2372         1.50998 
        5.65487         26.0036         1.49927 
         5.6706         25.7338         1.48866 
        5.68633         25.5851         1.47815 
        5.70203         25.4155         1.46775 
        5.71773         25.2769         1.45746 
        5.73344         25.0797         1.44727 
        5.74916         24.8857         1.43716 
        5.76486         24.7104         1.42716 
        5.78054         24.5086         1.41727 
        5.79626         24.3753         1.40745 
          5.812         24.1715         1.39771 
         5.8277         23.9434          1.3881 
        5.84339         23.8625         1.37857 
        5.85911         23.6842         1.36911 
        5.87484         23.5129         1.35975 
        5.89053         23.3429         1.35049 
        5.90623         23.1945         1.34131 
        5.92195         23.0299          1.3322 
        5.93767         22.8575         1.32318 
        5.95336         22.7028         1.31426 
        5.96905         22.5348         1.30542 
        5.98476         22.3955         1.29666 
        6.00048         22.2247         1.28797 
        6.01617         22.0654         1.27937 
        6.03185         21.9332         1.27086 
        6.04756         21.7671         1.26241 
        6.06331         21.6209         1.25402 
        6.07903         21.4401         1.24572 
        6.09473         21.3225          1.2375 
        6.11044         21.1371         1.22935 
        6.12616         21.0272         1.22128 
        6.14186         20.8767         1.21328 
        6.15755         20.7098         1.20536 
        6.17326         20.5688          1.1975 
        6.18898         20.4489         1.18971 
        6.20467         20.3162           1.182 
        6.22036         20.1513         1.17436 
         6.2361         20.0204         1.16677 
         6.2518         19.8631         1.15926 
        6.26748         19.7369         1.15183 
        6.28319          19.576         1.14444 
        6.29893         19.4796         1.13711 
        6.31463         19.3523         1.12986 
        6.33033         19.2072         1.12267 
        6.34604         19.0878         1.11555 
        6.36177         18.9343         1.10847 
        6.37747         18.8478         1.10147 
