# k  (h/Mpc)    Pcb(k)  (Mpc/h)^3    Pcb_linear(k) (Mpc/h)^3   ShotnoiseSubtracted = true
      0.0200456         902.886          912.67 
      0.0350414         722.663         715.626 
      0.0492313          566.99         566.996 
      0.0637834         456.369         461.058 
      0.0800726         346.421         348.285 
       0.096163         277.045         273.949 
       0.111083         234.947         231.897 
       0.126058         192.125         192.772 
       0.142273         156.767         156.866 
       0.158546         134.108         133.632 
        0.17375         117.792         116.264 
       0.188953         101.266         99.9516 
       0.204907         85.6651         86.5224 
       0.220756         77.1792         76.4721 
        0.23588         68.5656         67.9238 
         0.2514          61.016         60.1859 
       0.267535         55.0919         53.6756 
       0.283568         49.2077         48.2322 
       0.299022         44.7969          43.555 
       0.314451          41.553         39.4895 
       0.330372          37.259         35.9056 
       0.346141         34.0817         32.7776 
       0.361624         31.2239         30.0413 
       0.377134          28.614         27.6214 
       0.392932         27.3166         25.4407 
       0.408854         24.7058         23.4745 
       0.424564         23.5105         21.7329 
       0.440253         21.5228         20.1741 
       0.455999         19.7145         18.7646 
       0.471626         18.4963          17.497 
        0.48727         17.8059         16.3449 
       0.502856         16.6818         15.3009 
       0.518488         15.4006         14.3455 
       0.534347         14.4191         13.4592 
       0.550082          13.835         12.6539 
       0.565732         13.2301         11.9185 
       0.581496         12.4413         11.2369 
       0.597222         11.7123         10.6101 
       0.612804         11.0635         10.0364 
       0.628434         10.6823         9.50376 
       0.644267         10.1577          9.0037 
       0.660051         9.62173         8.54115 
       0.675724         9.09534         8.11408 
       0.691403         8.77608         7.71617 
       0.707174         8.36315         7.34294 
       0.722871         8.15179         6.99607 
        0.73838         7.61677         6.67544 
       0.754018         7.28324         6.37258 
       0.769845          6.9342         6.08526 
        0.78569         6.75875         5.81544 
       0.801365         6.46064         5.56466 
       0.817031         6.24835         5.32887 
       0.832809         5.93363         5.10528 
       0.848511         5.76854         4.89555 
       0.864097         5.55779         4.69908 
       0.879701         5.41152         4.51324 
       0.895507         5.17751         4.33528 
       0.911279         4.99375         4.16733 
        0.92691         4.85134         4.00969 
       0.942635         4.64592         3.85938 
       0.958396         4.49309         3.71648 
       0.974128         4.37667         3.58112 
       0.989692          4.1856         3.45386 
        1.00528         4.09288         3.33263 
        1.02113          3.9776         3.21535 
        1.03692         3.86636         3.10417 
        1.05264         3.71017         2.99879 
        1.06832         3.61516         2.89849 
        1.08405         3.50884         2.80254 
        1.09979         3.42405         2.71089 
        1.11537         3.31957         2.62426 
        1.13105         3.20859         2.54092 
        1.14679         3.12805          2.4609 
        1.16256          3.0283         2.38418 
        1.17828         2.98816         2.31099 
        1.19395           2.877         2.24114 
         1.2097         2.79735         2.17383 
        1.22537         2.70822         2.10962 
          1.241         2.65566         2.04821 
        1.25666         2.61398         1.98909 
        1.27241         2.54867         1.93204 
        1.28819         2.45204         1.87714 
        1.30392         2.39507         1.82454 
        1.31957         2.35867          1.7742 
        1.33529         2.26719         1.72558 
        1.35108         2.22566         1.67859 
        1.36674         2.16831          1.6337 
         1.3824         2.14152         1.59049 
        1.39811         2.08045         1.54871 
        1.41389         2.03019         1.50827 
        1.42964          1.9861         1.46935 
        1.44531         1.95212           1.432 
        1.46101         1.89902         1.39587 
        1.47667         1.86701          1.3611 
        1.49229         1.80315          1.3276 
        1.50793         1.76414         1.29521 
        1.52367         1.72998         1.26368 
        1.53953         1.68886           1.233 
        1.55526         1.68219         1.20359 
        1.57092         1.64371         1.17525 
        1.58662         1.62302         1.14777 
        1.60235         1.56694         1.12111 
        1.61809         1.54235         1.09529 
        1.63369         1.50418         1.07051 
        1.64941         1.48153         1.04633 
        1.66519         1.45924         1.02281 
        1.68085         1.42223         1.00017 
        1.69652          1.3967        0.978222 
        1.71228         1.36728        0.956806 
        1.72806          1.3444        0.936016 
        1.74368         1.32342        0.916054 
        1.75933         1.30168        0.896635 
        1.77505         1.27936        0.877689 
        1.79081          1.2444        0.859259 
         1.8065         1.23328        0.841437 
        1.82218         1.20324        0.824138 
        1.83797         1.18074        0.807208 
        1.85367         1.16512        0.790847 
        1.86928         1.14521        0.775039 
        1.88497         1.11958        0.759578 
        1.90073         1.11121        0.744483 
        1.91647         1.08178        0.729811 
        1.93218         1.06785        0.715567 
        1.94787         1.05076        0.701725 
        1.96363         1.03676        0.688195 
        1.97935         1.01608         0.67505 
        1.99499         1.00168        0.662323 
        2.01064        0.986079        0.649906 
         2.0264        0.963221         0.63773 
        2.04216        0.955243        0.625873 
        2.05781        0.938362        0.614392 
        2.07353        0.925905        0.603159 
        2.08928        0.910585        0.592182 
        2.10499        0.895453        0.581509 
        2.12065        0.880737        0.571131 
        2.13633        0.869601        0.560997 
        2.15211        0.851889        0.551045 
        2.16785        0.843949        0.541362 
        2.18349         0.82966        0.531973 
        2.19916         0.81973        0.522786 
        2.21489        0.806288        0.513787 
        2.23063         0.79096        0.504994 
         2.2463        0.782009        0.496446 
        2.26194        0.773306        0.488118 
        2.27765        0.760355        0.479938 
        2.29341        0.750208        0.471925 
        2.30914        0.735663        0.464112 
        2.32486         0.72861        0.456479 
        2.34061        0.717739        0.449006 
        2.35635        0.707937        0.441708 
        2.37203        0.699902        0.434596 
        2.38768        0.690835        0.427657 
        2.40339        0.682073        0.420844 
        2.41914          0.6731        0.414163 
        2.43483         0.66304        0.407651 
         2.4505        0.654562        0.401291 
        2.46622        0.646313        0.395044 
        2.48195        0.635943         0.38893 
        2.49759        0.631583        0.382978 
        2.51328        0.619495        0.377136 
        2.52906        0.612493        0.371378 
        2.54479        0.603568        0.365762 
        2.56049        0.597477        0.360274 
        2.57618        0.590654        0.354902 
        2.59189        0.581951        0.349633 
        2.60758        0.577487        0.344478 
        2.62325        0.568208        0.339434 
        2.63898        0.563651        0.334474 
        2.65468        0.553733        0.329623 
        2.67044        0.548231        0.324847 
        2.68618        0.542832        0.320177 
        2.70184        0.534297        0.315618 
        2.71755        0.528043        0.311136 
        2.73329        0.525593        0.306735 
        2.74897        0.516062        0.302433 
        2.76462        0.509953        0.298223 
        2.78034        0.503936        0.294076 
        2.79607        0.500013        0.290003 
        2.81179        0.492264        0.286012 
        2.82749        0.487654        0.282101 
        2.84321        0.481684        0.278259 
        2.85893        0.475731        0.274489 
        2.87462        0.469881        0.270796 
        2.89033        0.467974        0.267167 
        2.90605        0.461812        0.263602 
        2.92176        0.458113        0.260103 
        2.93747        0.451048         0.25667 
        2.95318         0.44665        0.253298 
        2.96891        0.443218        0.249986 
        2.98456        0.436563        0.246747 
        3.00023        0.432611        0.243561 
        3.01596        0.428366        0.240421 
        3.03164         0.42328        0.237345 
        3.04738        0.419411        0.234315 
         3.0631        0.414995        0.231338 
        3.07883        0.411257        0.228413 
        3.09456        0.407622        0.225539 
        3.11026        0.402416        0.222719 
        3.12596        0.397745        0.219947 
        3.14163        0.396384        0.217229 
        3.15734        0.391179        0.214551 
        3.17308        0.387508        0.211911 
        3.18879        0.384074        0.209323 
        3.20447        0.378933        0.206782 
         3.2202        0.376446        0.204275 
         3.2359        0.372456        0.201814 
        3.25157        0.366653          0.1994 
        3.26729        0.366433        0.197018 
        3.28304        0.362094         0.19467 
        3.29877        0.358741        0.192363 
        3.31446        0.356614        0.190099 
        3.33014        0.351883        0.187874 
        3.34585        0.348617         0.18568 
        3.36158         0.34598        0.183518 
        3.37727        0.343569        0.181398 
        3.39294        0.340858        0.179313 
        3.40867        0.336151        0.177253 
        3.42439        0.334371        0.175227 
        3.44008        0.331292        0.173236 
        3.45578         0.32759        0.171275 
        3.47153        0.325867        0.169339 
        3.48724        0.323085        0.167437 
        3.50292        0.320179        0.165569 
        3.51859        0.317616         0.16373 
        3.53431        0.314807        0.161914 
        3.55007        0.312176         0.16012 
        3.56577        0.309969        0.158361 
        3.58146         0.30716        0.156629 
        3.59719        0.304763        0.154919 
        3.61292        0.302938        0.153234 
        3.62859        0.299972        0.151582 
        3.64429        0.297415         0.14995 
        3.66003        0.294955        0.148338 
        3.67578        0.293228         0.14675 
        3.69146        0.289781        0.145191 
        3.70712        0.288766        0.143657 
        3.72284        0.287492         0.14214 
        3.73853        0.285003        0.140648 
        3.75422        0.282075        0.139176 
        3.76993        0.279789        0.137724 
        3.78564        0.277487        0.136294 
        3.80137        0.275342        0.134881 
        3.81707        0.273988        0.133492 
        3.83279        0.271662        0.132121 
        3.84853          0.2697        0.130767 
        3.86424        0.267962        0.129434 
        3.87992        0.265723        0.128122 
        3.89561        0.264118        0.126829 
        3.91134        0.261999         0.12555 
        3.92704        0.259899        0.124291 
        3.94273        0.258768         0.12305 
        3.95845        0.256462        0.121823 
        3.97418        0.254823        0.120614 
        3.98988        0.252228        0.119422 
        4.00554        0.250275        0.118249 
        4.02125        0.247866        0.117089 
        4.03698        0.245389        0.115943 
        4.05268        0.243361        0.114815 
        4.06839        0.240975        0.113701 
         4.0841        0.238658        0.112602 
        4.09983        0.236367        0.111516 
        4.11555          0.2344        0.110444 
        4.13124         0.23228         0.10939 
        4.14693        0.229959        0.108349 
        4.16266        0.227431        0.107318 
        4.17839        0.225534        0.106302 
        4.19408        0.223378        0.105301 
        4.20977        0.222246        0.104313 
        4.22551         0.22018        0.103335 
        4.24123        0.217605         0.10237 
        4.25691        0.216575        0.101421 
        4.27259        0.214537        0.100483 
        4.28831        0.213564       0.0995553 
        4.30404        0.211258       0.0986383 
        4.31974        0.210056       0.0977348 
        4.33543        0.208517       0.0968431 
        4.35116        0.207111       0.0959605 
        4.36688        0.205915       0.0950891 
        4.38255        0.204107       0.0942319 
        4.39825        0.203478       0.0933833 
        4.41398        0.201821       0.0925435 
         4.4297        0.201066       0.0917149 
        4.44541        0.199264       0.0908966 
        4.46111        0.198745       0.0900889 
        4.47683        0.197874       0.0892905 
        4.49251        0.196185       0.0885033 
        4.50819        0.195745       0.0877258 
         4.5239        0.194864       0.0869566 
        4.53962        0.193525       0.0861956 
        4.55535        0.193254       0.0854433 
        4.57106        0.192565       0.0847011 
        4.58678        0.191122       0.0839675 
         4.6025        0.191175       0.0832425 
        4.61821        0.190648       0.0825262 
        4.63391        0.189834       0.0818192 
         4.6496        0.189066       0.0811207 
        4.66532        0.188734       0.0804293 
        4.68103        0.188153       0.0797463 
        4.69673        0.187893       0.0790719 
        4.71241        0.187359       0.0784059 
        4.72811        0.187533       0.0777466 
        4.74384        0.186994       0.0770939 
        4.75955        0.186484       0.0764497 
        4.77525        0.186624       0.0758133 
        4.79096        0.186532       0.0751833 
        4.80669        0.185821       0.0745601 
         4.8224        0.186046       0.0739448 
        4.83809        0.186016        0.073337 
        4.85379        0.185866       0.0727357 
         4.8695        0.186231       0.0721406 
        4.88521        0.185844       0.0715525 
        4.90093        0.186676       0.0709708 
        4.91663        0.186064       0.0703961 
        4.93234        0.186261       0.0698271 
        4.94807          0.1865        0.069264 
        4.96377         0.18733       0.0687083 
        4.97943        0.187872       0.0681597 
        4.99514        0.186982       0.0676158 
        5.01086        0.188201       0.0670773 
        5.02654        0.188362       0.0665461 
        5.04227        0.189177       0.0660191 
          5.058        0.190153       0.0654976 
        5.07371        0.189989       0.0649827 
        5.08942        0.191258       0.0644732 
        5.10513        0.191434       0.0639692 
        5.12084        0.192081       0.0634703 
        5.13656        0.192712       0.0629768 
        5.15225        0.193695       0.0624894 
        5.16796        0.195008       0.0620064 
        5.18369        0.195504        0.061528 
         5.1994        0.196398       0.0610556 
        5.21509        0.197059       0.0605885 
        5.23079        0.197883       0.0601258 
        5.24649        0.198868       0.0596683 
        5.26217         0.20046       0.0592158 
        5.27788        0.201185       0.0587674 
        5.29359        0.202472       0.0583235 
        5.30933        0.203314       0.0578836 
        5.32504        0.204964        0.057449 
        5.34073        0.205905       0.0570193 
        5.35646        0.207384       0.0565931 
        5.37218        0.209347       0.0561712 
        5.38789         0.20932       0.0557543 
        5.40357        0.211516       0.0553421 
        5.41929        0.211961       0.0549331 
        5.43502        0.214722       0.0545283 
         5.4507        0.216042       0.0541284 
        5.46639        0.217279       0.0537326 
        5.48212        0.218832       0.0533397 
        5.49786        0.220262       0.0529503 
        5.51353        0.223579       0.0525668 
        5.52921        0.223666       0.0521866 
        5.54495        0.225632       0.0518091 
        5.56066        0.227899       0.0514357 
        5.57637        0.229199       0.0510661 
        5.59207        0.231342       0.0507004 
        5.60778         0.23363       0.0503381 
        5.62346         0.23571       0.0499799 
        5.63916        0.237166       0.0496249 
        5.65487        0.239305       0.0492731 
         5.6706        0.240202       0.0489243 
        5.68633        0.243721       0.0485787 
        5.70203        0.246209       0.0482372 
        5.71773        0.248186        0.047899 
        5.73344        0.250319       0.0475639 
        5.74916         0.25181       0.0472317 
        5.76486        0.255054       0.0469031 
        5.78054        0.256052       0.0465782 
        5.79626        0.258393       0.0462554 
          5.812        0.262018       0.0459353 
         5.8277        0.263595       0.0456192 
        5.84339        0.266095       0.0453061 
        5.85911        0.269343       0.0449953 
        5.87484        0.270929       0.0446875 
        5.89053         0.27343       0.0443832 
        5.90623        0.275916       0.0440816 
        5.92195        0.278378       0.0437822 
        5.93767        0.280183       0.0434858 
        5.95336        0.283129       0.0431926 
        5.96905        0.286404       0.0429023 
        5.98476        0.288199       0.0426142 
        6.00048        0.290842       0.0423286 
        6.01617        0.294605        0.042046 
        6.03185        0.296889       0.0417664 
        6.04756        0.298587       0.0414886 
        6.06331        0.301451       0.0412128 
        6.07903        0.305521       0.0409401 
        6.09473        0.307388         0.04067 
        6.11044         0.30968       0.0404022 
        6.12616        0.312603       0.0401368 
        6.14186        0.315636       0.0398741 
        6.15755        0.318982       0.0396137 
        6.17326        0.321201       0.0393555 
        6.18898        0.323164       0.0390994 
        6.20467         0.32417        0.038846 
        6.22036        0.330414        0.038595 
         6.2361        0.330287       0.0383454 
         6.2518        0.334074       0.0380985 
        6.26748        0.336001       0.0378543 
        6.28319        0.340467       0.0376116 
        6.29893        0.342928       0.0373708 
        6.31463        0.344295       0.0371325 
        6.33033        0.348701       0.0368963 
        6.34604        0.351438        0.036662 
        6.36177        0.352643       0.0364296 
        6.37747        0.355243       0.0361996 
