# k  (h/Mpc)    Pcb(k)  (Mpc/h)^3    Pcb_linear(k) (Mpc/h)^3   ShotnoiseSubtracted = true
      0.0200456         16228.2           16462 
      0.0350414         13230.3         12907.9 
      0.0492313         9988.39           10227 
      0.0637834         7900.08          8316.2 
      0.0800726         5971.93         6282.09 
       0.096163         5039.82         4941.27 
       0.111083         4304.33         4182.77 
       0.126058         3422.41         3477.08 
       0.142273         2913.62         2829.43 
       0.158546         2493.61         2410.34 
        0.17375         2244.59         2097.08 
       0.188953         2067.91         1802.85 
       0.204907          1770.3         1560.62 
       0.220756         1609.37         1379.34 
        0.23588         1446.96         1225.16 
         0.2514         1302.23         1085.59 
       0.267535         1257.57         968.157 
       0.283568         1116.41         869.973 
       0.299022         1069.67          785.61 
       0.314451         1103.38          712.28 
       0.330372         963.282         647.636 
       0.346141         889.316         591.217 
       0.361624         854.142         541.862 
       0.377134         813.347         498.212 
       0.392932         784.148         458.879 
       0.408854         746.801         423.414 
       0.424564         729.351         392.001 
       0.440253          671.34         363.884 
       0.455999         643.165         338.461 
       0.471626         653.373         315.596 
        0.48727         618.102         294.817 
       0.502856         581.129         275.986 
       0.518488         574.633         258.752 
       0.534347         541.694         242.765 
       0.550082         520.485          228.24 
       0.565732         515.594         214.977 
       0.581496         502.787         202.683 
       0.597222         489.095         191.377 
       0.612804         479.663         181.029 
       0.628434         458.909         171.421 
       0.644267          443.16         162.402 
       0.660051         436.881         154.058 
       0.675724         429.617         146.355 
       0.691403         418.551         139.178 
       0.707174         403.382         132.446 
       0.722871         395.663          126.19 
        0.73838         392.184         120.406 
       0.754018          377.93         114.943 
       0.769845         374.431         109.761 
        0.78569         366.586         104.894 
       0.801365          356.05         100.371 
       0.817031         350.903         96.1179 
       0.832809         346.527          92.085 
       0.848511         337.588         88.3021 
       0.864097         329.881         84.7583 
       0.879701         326.765         81.4062 
       0.895507         316.383         78.1964 
       0.911279         309.879         75.1669 
        0.92691          307.02         72.3237 
       0.942635         305.017         69.6124 
       0.958396         295.037          67.035 
       0.974128         291.042         64.5933 
       0.989692         280.251          62.298 
        1.00528         279.969         60.1113 
        1.02113         275.091         57.9959 
        1.03692         269.044         55.9906 
        1.05264          264.53         54.0899 
        1.06832         263.278         52.2807 
        1.08405           256.8         50.5499 
        1.09979         254.266         48.8968 
        1.11537         247.591         47.3343 
        1.13105         244.256         45.8311 
        1.14679         241.184         44.3877 
        1.16256         238.504         43.0039 
        1.17828         234.764         41.6838 
        1.19395         228.515         40.4239 
         1.2097         228.278         39.2098 
        1.22537         225.081         38.0516 
          1.241         220.243         36.9439 
        1.25666         217.442         35.8777 
        1.27241         213.365         34.8487 
        1.28819         210.764         33.8584 
        1.30392         207.455         32.9097 
        1.31957         202.616         32.0016 
        1.33529         200.194         31.1246 
        1.35108         197.927         30.2771 
        1.36674         194.467         29.4673 
         1.3824         192.251          28.688 
        1.39811         189.431         27.9344 
        1.41389         185.412          27.205 
        1.42964         183.196          26.503 
        1.44531         180.805         25.8292 
        1.46101         177.677         25.1775 
        1.47667         175.518         24.5504 
        1.49229         173.045         23.9463 
        1.50793          170.41         23.3619 
        1.52367         168.509         22.7933 
        1.53953         164.513         22.2399 
        1.55526         164.244         21.7093 
        1.57092         162.099         21.1983 
        1.58662         157.928         20.7025 
        1.60235         156.523         20.2217 
        1.61809         153.569          19.756 
        1.63369         151.733         19.3091 
        1.64941         150.498         18.8728 
        1.66519         147.896         18.4485 
        1.68085         145.467         18.0403 
        1.69652         143.737         17.6444 
        1.71228         142.138         17.2581 
        1.72806          139.98         16.8831 
        1.74368         138.413          16.523 
        1.75933         136.961         16.1728 
        1.77505         134.387         15.8311 
        1.79081         132.296         15.4986 
         1.8065         130.406         15.1772 
        1.82218         128.303         14.8651 
        1.83797         127.966         14.5598 
        1.85367         125.767         14.2647 
        1.86928         124.203         13.9795 
        1.88497         122.614         13.7007 
        1.90073          121.49         13.4284 
        1.91647         119.269         13.1638 
        1.93218         117.958         12.9068 
        1.94787         116.103         12.6572 
        1.96363          115.33         12.4131 
        1.97935         113.587          12.176 
        1.99499         112.709         11.9464 
        2.01064          110.17         11.7225 
         2.0264         109.104         11.5029 
        2.04216         107.437          11.289 
        2.05781         106.377         11.0819 
        2.07353         104.812         10.8793 
        2.08928         103.468         10.6813 
        2.10499         102.206         10.4888 
        2.12065         101.465         10.3016 
        2.13633         100.301         10.1188 
        2.15211         98.6954         9.93931 
        2.16785         97.1822         9.76465 
        2.18349         95.8704          9.5953 
        2.19916         95.0332         9.42961 
        2.21489         93.7769         9.26728 
        2.23063         92.3747         9.10868 
         2.2463         91.7894          8.9545 
        2.26194         90.3143         8.80429 
        2.27765         89.2512         8.65675 
        2.29341         88.3694         8.51221 
        2.30914         87.2512         8.37127 
        2.32486         85.8113         8.23361 
        2.34061         85.1627         8.09882 
        2.35635         83.8707         7.96717 
        2.37203          82.648          7.8389 
        2.38768         81.7913         7.71373 
        2.40339         81.2004         7.59084 
        2.41914         79.7666         7.47034 
        2.43483         78.8983         7.35289 
         2.4505         78.0041         7.23816 
        2.46622          77.167         7.12549 
        2.48195         76.2508         7.01521 
        2.49759         75.1944         6.90786 
        2.51328         74.5012         6.80248 
        2.52906         73.0397         6.69862 
        2.54479           72.37         6.59733 
        2.56049          71.551         6.49833 
        2.57618         70.5671         6.40145 
        2.59189         70.0229          6.3064 
        2.60758         69.0484         6.21343 
        2.62325         68.2473         6.12245 
        2.63898         67.4589         6.03297 
        2.65468         66.7637         5.94547 
        2.67044         65.9972         5.85934 
        2.68618         65.2616         5.77511 
        2.70184         64.2366         5.69287 
        2.71755         63.5584         5.61203 
        2.73329         62.8956         5.53264 
        2.74897         62.3363         5.45504 
        2.76462          61.748         5.37911 
        2.78034         61.0227          5.3043 
        2.79607          60.164         5.23084 
        2.81179         59.3979         5.15886 
        2.82749         59.0867         5.08831 
        2.84321         58.4486         5.01901 
        2.85893         57.7438         4.95102 
        2.87462         57.0033          4.8844 
        2.89033         56.2975         4.81895 
        2.90605         55.8232         4.75464 
        2.92176         55.0989         4.69154 
        2.93747         54.3454         4.62961 
        2.95318         53.9837         4.56879 
        2.96891         53.2536         4.50904 
        2.98456         52.6952         4.45062 
        3.00023         52.0513         4.39315 
        3.01596         51.6684         4.33652 
        3.03164         51.1273         4.28105 
        3.04738         50.5057         4.22638 
         3.0631         49.6925         4.17269 
        3.07883         49.3954         4.11993 
        3.09456         48.7236         4.06809 
        3.11026         48.2157         4.01722 
        3.12596         47.8726         3.96723 
        3.14163         47.1172         3.91821 
        3.15734         46.6613         3.86989 
        3.17308         46.2584         3.82228 
        3.18879         45.7495          3.7756 
        3.20447         45.2765         3.72977 
         3.2202         44.7273         3.68455 
         3.2359         44.4318         3.64017 
        3.25157         43.8371         3.59662 
        3.26729         43.4247         3.55365 
        3.28304         43.0539          3.5113 
        3.29877         42.4295          3.4697 
        3.31446         42.1836         3.42886 
        3.33014         41.7567         3.38871 
        3.34585         41.2721         3.34915 
        3.36158         40.8224         3.31016 
        3.37727         40.4254         3.27191 
        3.39294         40.0122          3.2343 
        3.40867         39.6241         3.19715 
        3.42439         39.1266          3.1606 
        3.44008         38.8191         3.12469 
        3.45578         38.3485         3.08931 
        3.47153          38.061         3.05441 
        3.48724          37.476          3.0201 
        3.50292         37.1388         2.98641 
        3.51859         36.9606         2.95324 
        3.53431         36.4161         2.92047 
        3.55007         36.0966         2.88812 
        3.56577         35.7949         2.85639 
        3.58146         35.4629         2.82514 
        3.59719         35.0833          2.7943 
        3.61292         34.7415         2.76392 
        3.62859         34.4344         2.73411 
        3.64429          34.215         2.70468 
        3.66003         33.7824          2.6756 
        3.67578         33.5155         2.64695 
        3.69146         33.2151         2.61883 
        3.70712         32.8243         2.59117 
        3.72284         32.5781         2.56381 
        3.73853          32.211         2.53689 
        3.75422         31.9283         2.51035 
        3.76993         31.6596         2.48416 
        3.78564         31.3391         2.45836 
        3.80137         31.0346         2.43288 
        3.81707           30.75         2.40782 
        3.83279         30.4406         2.38309 
        3.84853         30.1047         2.35867 
        3.86424         29.8968         2.33463 
        3.87992         29.5342         2.31097 
        3.89561         29.3987         2.28763 
        3.91134         29.0604         2.26457 
        3.92704         28.7619         2.24185 
        3.94273         28.5679         2.21947 
        3.95845         28.2674         2.19735 
        3.97418         27.9546         2.17553 
        3.98988         27.6154         2.15404 
        4.00554         27.3797         2.13289 
        4.02125         27.2001         2.11196 
        4.03698         26.9922         2.09129 
        4.05268         26.7382         2.07094 
        4.06839         26.4478         2.05084 
         4.0841         26.2731         2.03102 
        4.09983         25.9434         2.01143 
        4.11555         25.7319         1.99211 
        4.13124         25.5988         1.97309 
        4.14693         25.3183         1.95431 
        4.16266         25.0448         1.93572 
        4.17839         24.8992         1.91739 
        4.19408         24.5684         1.89934 
        4.20977         24.4214         1.88151 
        4.22551         24.2597         1.86387 
        4.24123         24.0094         1.84648 
        4.25691         23.7672         1.82935 
        4.27259          23.569         1.81243 
        4.28831         23.3672          1.7957 
        4.30404         23.1639         1.77916 
        4.31974         22.9376         1.76286 
        4.33543         22.7535         1.74678 
        4.35116         22.5765         1.73086 
        4.36688         22.4072         1.71514 
        4.38255         22.1925         1.69968 
        4.39825          22.026         1.68437 
        4.41398         21.8246         1.66923 
         4.4297         21.6408         1.65428 
        4.44541         21.3674         1.63952 
        4.46111         21.2533         1.62495 
        4.47683         21.0344         1.61055 
        4.49251         20.8982         1.59635 
        4.50819         20.7296         1.58233 
         4.5239         20.4842         1.56845 
        4.53962          20.359         1.55473 
        4.55535         20.1505         1.54116 
        4.57106         20.0234         1.52777 
        4.58678         19.8249         1.51454 
         4.6025         19.7248         1.50146 
        4.61821         19.4586         1.48854 
        4.63391         19.3429         1.47579 
         4.6496         19.2128         1.46319 
        4.66532         19.0252         1.45072 
        4.68103         18.8918          1.4384 
        4.69673         18.7578         1.42624 
        4.71241         18.6062         1.41422 
        4.72811         18.4207         1.40233 
        4.74384         18.2881         1.39056 
        4.75955         18.1328         1.37894 
        4.77525         17.9832         1.36746 
        4.79096         17.8037          1.3561 
        4.80669         17.6963         1.34486 
         4.8224           17.52         1.33376 
        4.83809         17.4494         1.32279 
        4.85379         17.2758         1.31195 
         4.8695         17.0817         1.30121 
        4.88521         16.9909         1.29061 
        4.90093          16.875         1.28011 
        4.91663         16.7043         1.26975 
        4.93234         16.5557         1.25949 
        4.94807         16.4539         1.24933 
        4.96377         16.3085          1.2393 
        4.97943         16.1587         1.22941 
        4.99514         16.0551          1.2196 
        5.01086         15.9291         1.20989 
        5.02654         15.8542         1.20031 
        5.04227         15.6492          1.1908 
          5.058         15.5848         1.18139 
        5.07371         15.4261         1.17211 
        5.08942         15.2938         1.16292 
        5.10513         15.2082         1.15383 
        5.12084         15.0824         1.14483 
        5.13656         14.9751         1.13593 
        5.15225         14.8512         1.12713 
        5.16796         14.7193         1.11842 
        5.18369         14.6399         1.10979 
         5.1994         14.5195         1.10127 
        5.21509         14.4263         1.09285 
        5.23079         14.3023          1.0845 
        5.24649         14.1902         1.07625 
        5.26217         14.0816         1.06809 
        5.27788         13.9855            1.06 
        5.29359         13.8734         1.05199 
        5.30933         13.7668         1.04406 
        5.32504         13.6616         1.03622 
        5.34073         13.5413         1.02847 
        5.35646         13.4882         1.02078 
        5.37218         13.3494         1.01317 
        5.38789         13.2381         1.00565 
        5.40357         13.1735        0.998217 
        5.41929         13.0979         0.99084 
        5.43502         12.9546        0.983537 
         5.4507         12.8638        0.976326 
        5.46639         12.7582        0.969185 
        5.48212         12.6541        0.962099 
        5.49786         12.5903        0.955076 
        5.51353         12.4842        0.948157 
        5.52921         12.4161          0.9413 
        5.54495         12.3393        0.934491 
        5.56066         12.2206        0.927756 
        5.57637         12.1325        0.921089 
        5.59207         12.0455        0.914493 
        5.60778          11.947        0.907959 
        5.62346         11.8642        0.901498 
        5.63916         11.8049        0.895094 
        5.65487         11.7098        0.888748 
         5.6706         11.6123        0.882457 
        5.68633          11.529        0.876224 
        5.70203          11.449        0.870064 
        5.71773         11.3716        0.863965 
        5.73344         11.2813         0.85792 
        5.74916         11.2292        0.851928 
        5.76486         11.1229        0.846001 
        5.78054         11.0447         0.84014 
        5.79626         10.9764        0.834318 
          5.812           10.88        0.828545 
         5.8277         10.8083        0.822844 
        5.84339         10.7355        0.817196 
        5.85911         10.6598         0.81159 
        5.87484         10.6027        0.806038 
        5.89053         10.4935        0.800549 
        5.90623          10.436        0.795108 
        5.92195          10.343        0.789709 
        5.93767         10.3092        0.784363 
        5.95336         10.1989        0.779074 
        5.96905         10.1304        0.773837 
        5.98476         10.0735         0.76864 
        6.00048         10.0055         0.76349 
        6.01617         9.93363        0.758393 
        6.03185         9.85713        0.753349 
        6.04756         9.79129        0.748339 
        6.06331         9.73926        0.743364 
        6.07903         9.66531        0.738444 
        6.09473         9.59829        0.733573 
        6.11044          9.5357        0.728743 
        6.12616         9.48162        0.723956 
        6.14186         9.39462        0.719217 
        6.15755         9.34718         0.71452 
        6.17326          9.2758        0.709862 
        6.18898         9.20854        0.705243 
        6.20467         9.14031        0.700674 
        6.22036          9.1025        0.696145 
         6.2361         9.03312        0.691644 
         6.2518         8.97346        0.687191 
        6.26748         8.92894        0.682786 
        6.28319         8.85323        0.678408 
        6.29893         8.78394        0.674064 
        6.31463         8.74027        0.669766 
        6.33033         8.66259        0.665506 
        6.34604          8.6113        0.661281 
        6.36177         8.55966        0.657088 
        6.37747          8.5045        0.652939 
