# k  (h/Mpc)    Pcb(k)  (Mpc/h)^3    Pcb_linear(k) (Mpc/h)^3   ShotnoiseSubtracted = true
      0.0200456         462.388         467.952 
      0.0350414         365.653         366.922 
      0.0492313         290.873         290.715 
      0.0637834         237.558         236.398 
      0.0800726         180.549         178.576 
       0.096163         140.067         140.461 
       0.111083         117.662           118.9 
       0.126058          99.214         98.8399 
       0.142273         81.3095         80.4297 
       0.158546         68.9233         68.5167 
        0.17375         59.2524         59.6119 
       0.188953         51.5818          51.248 
       0.204907         45.5965         44.3625 
       0.220756          39.669         39.2094 
        0.23588         35.2067         34.8265 
         0.2514         31.0726          30.859 
       0.267535         27.8349          27.521 
       0.283568         25.0807           24.73 
       0.299022         22.7593         22.3319 
       0.314451         20.3408         20.2474 
       0.330372         18.6676         18.4098 
       0.346141         17.0415          16.806 
       0.361624          15.705          15.403 
       0.377134         14.5595         14.1623 
       0.392932         13.0458         13.0442 
       0.408854         12.3682          12.036 
       0.424564         11.4074         11.1431 
       0.440253          10.575         10.3438 
       0.455999         9.92905         9.62115 
       0.471626           9.313         8.97118 
        0.48727         8.65612          8.3805 
       0.502856         8.07369         7.84523 
       0.518488         7.69222         7.35534 
       0.534347         7.28921         6.90089 
       0.550082         6.70412           6.488 
       0.565732         6.21306         6.11096 
       0.581496         6.02233          5.7615 
       0.597222         5.72994         5.44012 
       0.612804         5.36226         5.14596 
       0.628434         5.15356         4.87285 
       0.644267         4.87314         4.61645 
       0.660051         4.60117         4.37929 
       0.675724         4.38401         4.16032 
       0.691403         4.20927          3.9563 
       0.707174         3.98353         3.76493 
       0.722871         3.79431         3.58708 
        0.73838         3.65291         3.42269 
       0.754018         3.52369          3.2674 
       0.769845         3.33835         3.12008 
        0.78569          3.2061         2.98174 
       0.801365         3.06403         2.85316 
       0.817031         2.95185         2.73226 
       0.832809         2.83202         2.61762 
       0.848511          2.6921         2.51009 
       0.864097         2.57812         2.40935 
       0.879701         2.48349         2.31406 
       0.895507          2.3973         2.22282 
       0.911279         2.33433         2.13671 
        0.92691         2.23908         2.05588 
       0.942635         2.14908         1.97881 
       0.958396         2.06472         1.90555 
       0.974128         1.99781         1.83614 
       0.989692         1.94673         1.77089 
        1.00528         1.86738         1.70873 
        1.02113         1.79132          1.6486 
        1.03692         1.75571          1.5916 
        1.05264          1.6906         1.53757 
        1.06832          1.6427         1.48614 
        1.08405         1.56671         1.43694 
        1.09979         1.52677         1.38995 
        1.11537         1.48892         1.34553 
        1.13105          1.4478          1.3028 
        1.14679         1.40796         1.26177 
        1.16256         1.35246         1.22243 
        1.17828         1.31813         1.18491 
        1.19395         1.27768          1.1491 
         1.2097         1.22536         1.11458 
        1.22537         1.20392         1.08166 
          1.241         1.17213         1.05017 
        1.25666         1.15449         1.01986 
        1.27241         1.10345        0.990614 
        1.28819          1.0747        0.962465 
        1.30392         1.05431        0.935496 
        1.31957         1.02569        0.909683 
        1.33529        0.994764        0.884753 
        1.35108        0.969059        0.860662 
        1.36674        0.934506        0.837643 
         1.3824        0.921887        0.815489 
        1.39811        0.895175        0.794066 
        1.41389        0.876397        0.773333 
        1.42964         0.85654        0.753377 
        1.44531        0.830591        0.734226 
        1.46101        0.816636        0.715701 
        1.47667         0.78359        0.697872 
        1.49229        0.776759        0.680701 
        1.50793        0.753374        0.664089 
        1.52367        0.739596        0.647926 
        1.53953        0.717295        0.632194 
        1.55526        0.703514        0.617112 
        1.57092        0.685737        0.602586 
        1.58662        0.673566        0.588493 
        1.60235        0.658511        0.574826 
        1.61809        0.638846        0.561587 
        1.63369        0.634949        0.548883 
        1.64941        0.614764        0.536482 
        1.66519        0.601951        0.524421 
        1.68085        0.585031        0.512817 
        1.69652        0.574247        0.501562 
        1.71228        0.565765        0.490582 
        1.72806        0.549013        0.479922 
        1.74368        0.543714        0.469687 
        1.75933        0.529127         0.45973 
        1.77505        0.518875        0.450016 
        1.79081        0.509186        0.440566 
         1.8065        0.494249        0.431429 
        1.82218        0.488831        0.422559 
        1.83797        0.477779        0.413878 
        1.85367        0.472754         0.40549 
        1.86928        0.461338        0.397385 
        1.88497         0.45175        0.389457 
        1.90073         0.44229        0.381717 
        1.91647        0.436543        0.374195 
        1.93218        0.425325        0.366892 
        1.94787        0.418515        0.359794 
        1.96363        0.410578        0.352857 
        1.97935        0.401169        0.346117 
        1.99499          0.3949        0.339592 
        2.01064        0.387946        0.333225 
         2.0264        0.379402        0.326982 
        2.04216        0.376435        0.320903 
        2.05781        0.367884        0.315016 
        2.07353        0.359551        0.309257 
        2.08928        0.352434        0.303629 
        2.10499        0.348021        0.298156 
        2.12065        0.344203        0.292835 
        2.13633        0.337146        0.287639 
        2.15211        0.330976        0.282536 
        2.16785        0.324671        0.277572 
        2.18349        0.317859        0.272757 
        2.19916        0.315085        0.268047 
        2.21489        0.308501        0.263433 
        2.23063         0.30438        0.258925 
         2.2463        0.299296        0.254542 
        2.26194        0.291725        0.250272 
        2.27765         0.28868        0.246078 
        2.29341        0.284703        0.241969 
        2.30914        0.280445        0.237963 
        2.32486        0.274844         0.23405 
        2.34061        0.270613        0.230218 
        2.35635        0.265519        0.226476 
        2.37203        0.262098         0.22283 
        2.38768        0.257678        0.219272 
        2.40339        0.254635        0.215778 
        2.41914        0.250772        0.212353 
        2.43483        0.246587        0.209014 
         2.4505        0.241457        0.205753 
        2.46622        0.238016         0.20255 
        2.48195        0.235462        0.199416 
        2.49759        0.232628        0.196364 
        2.51328        0.228495        0.193368 
        2.52906        0.225799        0.190416 
        2.54479        0.221173        0.187537 
        2.56049        0.217213        0.184723 
        2.57618        0.214242        0.181969 
        2.59189        0.212313        0.179267 
        2.60758        0.209677        0.176624 
        2.62325        0.205463        0.174038 
        2.63898        0.203067        0.171494 
        2.65468         0.19936        0.169007 
        2.67044        0.197213        0.166558 
        2.68618        0.194495        0.164164 
        2.70184        0.191554        0.161826 
        2.71755        0.188194        0.159528 
        2.73329        0.186295        0.157272 
        2.74897        0.184081        0.155066 
        2.76462        0.181219        0.152907 
        2.78034        0.178451        0.150781 
        2.79607        0.176045        0.148693 
        2.81179        0.174292        0.146647 
        2.82749         0.17159        0.144641 
        2.84321        0.169413        0.142671 
        2.85893        0.167449        0.140738 
        2.87462         0.16513        0.138845 
        2.89033        0.162731        0.136984 
        2.90605        0.160452        0.135156 
        2.92176        0.158813        0.133362 
        2.93747        0.156049        0.131602 
        2.95318        0.154819        0.129873 
        2.96891        0.152486        0.128175 
        2.98456        0.150517        0.126514 
        3.00023        0.148856         0.12488 
        3.01596        0.147046        0.123271 
        3.03164        0.145492        0.121694 
        3.04738        0.142741         0.12014 
         3.0631        0.141792        0.118614 
        3.07883        0.139605        0.117114 
        3.09456        0.137997         0.11564 
        3.11026        0.136186        0.114194 
        3.12596         0.13458        0.112773 
        3.14163        0.133056        0.111379 
        3.15734        0.131763        0.110006 
        3.17308        0.130551        0.108653 
        3.18879        0.128587        0.107326 
        3.20447        0.126436        0.106023 
         3.2202        0.125988        0.104738 
         3.2359        0.124032        0.103476 
        3.25157        0.122803        0.102238 
        3.26729         0.12104        0.101017 
        3.28304        0.120534       0.0998128 
        3.29877        0.118626       0.0986301 
        3.31446        0.117394       0.0974693 
        3.33014         0.11639       0.0963281 
        3.34585        0.115093       0.0952034 
        3.36158        0.113751        0.094095 
        3.37727        0.112937       0.0930078 
        3.39294        0.111398       0.0919387 
        3.40867        0.110045       0.0908826 
        3.42439        0.108945       0.0898436 
        3.44008         0.10753       0.0888229 
        3.45578        0.106747       0.0878173 
        3.47153        0.105768       0.0868251 
        3.48724        0.104696       0.0858499 
        3.50292        0.103456        0.084892 
        3.51859        0.102148       0.0839492 
        3.53431        0.101173       0.0830177 
        3.55007         0.10046       0.0820981 
        3.56577       0.0992944       0.0811961 
        3.58146       0.0985118        0.080308 
        3.59719       0.0979044       0.0794311 
        3.61292       0.0969087       0.0785677 
        3.62859       0.0956686       0.0777203 
        3.64429       0.0946759       0.0768837 
        3.66003       0.0939029        0.076057 
        3.67578       0.0930333       0.0752427 
        3.69146       0.0920956       0.0744434 
        3.70712       0.0915395       0.0736571 
        3.72284       0.0906497       0.0728793 
        3.73853       0.0897155       0.0721141 
        3.75422       0.0890697       0.0713596 
        3.76993       0.0879461       0.0706152 
        3.78564       0.0872603       0.0698817 
        3.80137       0.0864901       0.0691575 
        3.81707       0.0858122       0.0684451 
        3.83279       0.0852116       0.0677421 
        3.84853       0.0841783       0.0670478 
        3.86424       0.0835177       0.0663646 
        3.87992       0.0827198        0.065692 
        3.89561       0.0821196       0.0650286 
        3.91134       0.0814439       0.0643731 
        3.92704       0.0806987       0.0637273 
        3.94273       0.0798661        0.063091 
        3.95845       0.0794384       0.0624623 
        3.97418       0.0787504        0.061842 
        3.98988       0.0777675       0.0612309 
        4.00554       0.0774023       0.0606298 
        4.02125       0.0763661        0.060035 
        4.03698       0.0754085       0.0594473 
        4.05268       0.0745963       0.0588688 
        4.06839       0.0737775       0.0582975 
         4.0841       0.0728541        0.057734 
        4.09983       0.0720855       0.0571772 
        4.11555       0.0710952       0.0566279 
        4.13124       0.0703428       0.0560874 
        4.14693       0.0694639       0.0555534 
        4.16266       0.0686008       0.0550252 
        4.17839       0.0680785       0.0545041 
        4.19408       0.0673841        0.053991 
        4.20977       0.0667215       0.0534842 
        4.22551       0.0659868       0.0529828 
        4.24123       0.0652408       0.0524882 
        4.25691       0.0646007       0.0520014 
        4.27259       0.0640541       0.0515205 
        4.28831        0.063369       0.0510448 
        4.30404       0.0629537       0.0505746 
        4.31974        0.062571       0.0501114 
        4.33543       0.0619879       0.0496542 
        4.35116       0.0615781       0.0492016 
        4.36688       0.0609165       0.0487549 
        4.38255       0.0604435       0.0483153 
        4.39825        0.060096       0.0478803 
        4.41398       0.0599333       0.0474497 
         4.4297       0.0594843       0.0470248 
        4.44541       0.0592063       0.0466053 
        4.46111       0.0588475       0.0461911 
        4.47683       0.0585439       0.0457817 
        4.49251       0.0581292       0.0453781 
        4.50819       0.0578462       0.0449795 
         4.5239       0.0575592       0.0445851 
        4.53962       0.0573429       0.0441949 
        4.55535       0.0571697       0.0438092 
        4.57106       0.0571282       0.0434287 
        4.58678       0.0566939       0.0430525 
         4.6025       0.0568501       0.0426808 
        4.61821       0.0567085       0.0423135 
        4.63391        0.056611        0.041951 
         4.6496       0.0564284       0.0415929 
        4.66532       0.0564663       0.0412384 
        4.68103       0.0563378       0.0408882 
        4.69673        0.056227       0.0405424 
        4.71241       0.0563684       0.0402009 
        4.72811       0.0563748       0.0398629 
        4.74384       0.0564167       0.0395282 
        4.75955        0.056598       0.0391979 
        4.77525       0.0566853       0.0388716 
        4.79096       0.0567533       0.0385486 
        4.80669       0.0566907       0.0382291 
         4.8224       0.0569933       0.0379136 
        4.83809       0.0572058        0.037602 
        4.85379       0.0572997       0.0372936 
         4.8695       0.0575541       0.0369885 
        4.88521       0.0578085        0.036687 
        4.90093       0.0581082       0.0363887 
        4.91663       0.0583487        0.036094 
        4.93234       0.0584797       0.0358023 
        4.94807       0.0588102       0.0355136 
        4.96377       0.0592853       0.0352287 
        4.97943       0.0597838       0.0349474 
        4.99514       0.0599876       0.0346685 
        5.01086       0.0604867       0.0343925 
        5.02654       0.0606539       0.0341201 
        5.04227       0.0612376       0.0338499 
          5.058       0.0618463       0.0335825 
        5.07371       0.0623365       0.0333185 
        5.08942       0.0625877       0.0330573 
        5.10513       0.0634487       0.0327988 
        5.12084       0.0640493        0.032543 
        5.13656        0.064402         0.03229 
        5.15225       0.0653928       0.0320401 
        5.16796       0.0659017       0.0317924 
        5.18369       0.0665196       0.0315472 
         5.1994       0.0672674       0.0313049 
        5.21509       0.0680411       0.0310655 
        5.23079       0.0687426       0.0308282 
        5.24649       0.0695302       0.0305936 
        5.26217       0.0702721       0.0303616 
        5.27788       0.0712347       0.0301317 
        5.29359       0.0723079       0.0299041 
        5.30933       0.0728758       0.0296786 
        5.32504       0.0739776       0.0294557 
        5.34073       0.0749738       0.0292354 
        5.35646       0.0758882       0.0290169 
        5.37218        0.077196       0.0288006 
        5.38789       0.0782063       0.0285868 
        5.40357       0.0789515       0.0283755 
        5.41929       0.0804119       0.0281658 
        5.43502        0.081334       0.0279582 
         5.4507       0.0827216       0.0277532 
        5.46639       0.0840676       0.0275502 
        5.48212       0.0850457       0.0273488 
        5.49786       0.0864445       0.0271491 
        5.51353       0.0883776       0.0269525 
        5.52921       0.0888195       0.0267575 
        5.54495       0.0904542        0.026564 
        5.56066       0.0919302       0.0263725 
        5.57637       0.0937334        0.026183 
        5.59207       0.0952255       0.0259955 
        5.60778       0.0969687       0.0258098 
        5.62346       0.0985508       0.0256261 
        5.63916        0.100505       0.0254441 
        5.65487        0.102018       0.0252637 
         5.6706        0.103279       0.0250849 
        5.68633        0.105539       0.0249077 
        5.70203        0.106736       0.0247326 
        5.71773        0.109467       0.0245592 
        5.73344        0.111213       0.0243874 
        5.74916        0.113537        0.024217 
        5.76486        0.115304       0.0240486 
        5.78054        0.117237        0.023882 
        5.79626        0.118991       0.0237164 
          5.812        0.121827       0.0235523 
         5.8277        0.123519       0.0233903 
        5.84339        0.125726       0.0232297 
        5.85911        0.128811       0.0230704 
        5.87484        0.130365       0.0229126 
        5.89053        0.133713       0.0227565 
        5.90623        0.136022       0.0226019 
        5.92195        0.138623       0.0224484 
        5.93767        0.141521       0.0222964 
        5.95336        0.143374       0.0221461 
        5.96905        0.146749       0.0219972 
        5.98476        0.149286       0.0218495 
        6.00048        0.151825       0.0217031 
        6.01617        0.154759       0.0215582 
        6.03185        0.158308       0.0214148 
        6.04756        0.160917       0.0212724 
        6.06331        0.163832        0.021131 
        6.07903        0.167983       0.0209911 
        6.09473        0.170811       0.0208527 
        6.11044         0.17415       0.0207153 
        6.12616        0.176501       0.0205793 
        6.14186        0.180762       0.0204446 
        6.15755        0.183379       0.0203111 
        6.17326        0.187456       0.0201787 
        6.18898        0.190196       0.0200474 
        6.20467        0.195164       0.0199175 
        6.22036        0.198528       0.0197887 
         6.2361        0.200777       0.0196608 
         6.2518        0.205932       0.0195342 
        6.26748        0.208942        0.019409 
        6.28319        0.212541       0.0192845 
        6.29893        0.217356        0.019161 
        6.31463        0.221798       0.0190389 
        6.33033        0.226384       0.0189178 
        6.34604         0.23001       0.0187977 
        6.36177        0.233474       0.0186785 
        6.37747        0.238602       0.0185605 
