# k  (h/Mpc)    Pcb(k)  (Mpc/h)^3    Pcb_linear(k) (Mpc/h)^3   ShotnoiseSubtracted = true
      0.0200456         2207.31         2231.34 
      0.0350414         1773.17          1749.6 
      0.0492313         1383.64         1386.22 
      0.0637834         1109.24         1127.22 
      0.0800726         841.606         851.503 
       0.096163         680.068         669.762 
       0.111083          578.45         566.952 
       0.126058         469.147         471.299 
       0.142273         384.141         383.513 
       0.158546         330.104         326.709 
        0.17375         291.122         284.248 
       0.188953         251.932         244.366 
       0.204907         211.759         211.534 
       0.220756         192.345         186.962 
        0.23588          171.07         166.063 
         0.2514         152.318         147.145 
       0.267535         139.823         131.228 
       0.283568          124.21          117.92 
       0.299022         114.551         106.485 
       0.314451         107.775         96.5457 
       0.330372         95.6609         87.7836 
       0.346141         87.9009         80.1362 
       0.361624         81.2462         73.4464 
       0.377134         74.3509         67.5299 
       0.392932         71.8321         62.1985 
       0.408854         65.7053         57.3915 
       0.424564         62.8492         53.1336 
       0.440253         57.4008         49.3225 
       0.455999         52.5849         45.8766 
       0.471626         49.7809         42.7773 
        0.48727         48.4254         39.9608 
       0.502856         45.1541         37.4084 
       0.518488         42.3467         35.0725 
       0.534347         39.9164         32.9055 
       0.550082         38.3957         30.9368 
       0.565732         36.9593         29.1389 
       0.581496         34.7249         27.4726 
       0.597222          32.848         25.9401 
       0.612804         31.3901         24.5375 
       0.628434         30.7417         23.2352 
       0.644267          29.124         22.0127 
       0.660051         27.6694         20.8818 
       0.675724         26.4212         19.8377 
       0.691403         25.8744         18.8648 
       0.707174         24.8637         17.9524 
       0.722871         24.0276         17.1043 
        0.73838         22.7505         16.3204 
       0.754018         21.6671           15.58 
       0.769845         21.0835         14.8775 
        0.78569         20.4211         14.2178 
       0.801365         19.6666         13.6047 
       0.817031         18.9962         13.0283 
       0.832809         18.3993         12.4816 
       0.848511         17.8474         11.9689 
       0.864097         17.2586         11.4885 
       0.879701         16.9639         11.0342 
       0.895507         16.3257         10.5991 
       0.911279         15.6737         10.1885 
        0.92691          15.353         9.80308 
       0.942635         14.9819         9.43558 
       0.958396         14.4511         9.08623 
       0.974128         14.1091         8.75528 
       0.989692         13.5065         8.44415 
        1.00528         13.4119         8.14777 
        1.02113         12.9559         7.86103 
        1.03692         12.6562         7.58923 
        1.05264         12.3629         7.33159 
        1.06832         12.0843         7.08637 
        1.08405         11.7738         6.85177 
        1.09979         11.4825          6.6277 
        1.11537         11.2024         6.41591 
        1.13105         10.9879         6.21216 
        1.14679         10.7513         6.01651 
        1.16256            10.5         5.82894 
        1.17828         10.2893         5.65002 
        1.19395         10.0771         5.47924 
         1.2097         9.75941         5.31468 
        1.22537         9.59187         5.15769 
          1.241         9.36042         5.00755 
        1.25666         9.31717         4.86302 
        1.27241         9.10688         4.72355 
        1.28819         8.75394         4.58933 
        1.30392         8.68024         4.46073 
        1.31957         8.50329         4.33765 
        1.33529         8.37816         4.21877 
        1.35108         8.18968          4.1039 
        1.36674         8.00263         3.99414 
         1.3824         7.92201          3.8885 
        1.39811         7.76262         3.78635 
        1.41389         7.57361         3.68749 
        1.42964         7.49428         3.59233 
        1.44531         7.34238         3.50101 
        1.46101         7.25146         3.41268 
        1.47667         7.09986         3.32767 
        1.49229         6.93496         3.24579 
        1.50793         6.84715         3.16658 
        1.52367         6.72738         3.08951 
        1.53953         6.59976          3.0145 
        1.55526         6.56178         2.94258 
        1.57092         6.41993         2.87331 
        1.58662         6.32637         2.80612 
        1.60235         6.22558         2.74095 
        1.61809         6.14552         2.67782 
        1.63369          6.0255         2.61724 
        1.64941         5.93547         2.55811 
        1.66519         5.85671          2.5006 
        1.68085          5.7599         2.44527 
        1.69652         5.69886          2.3916 
        1.71228         5.63222         2.33924 
        1.72806         5.52083         2.28841 
        1.74368         5.47074         2.23961 
        1.75933         5.38696         2.19213 
        1.77505          5.2802         2.14581 
        1.79081         5.25234         2.10075 
         1.8065          5.1823         2.05718 
        1.82218         5.09704         2.01489 
        1.83797         5.00719          1.9735 
        1.85367         4.94372          1.9335 
        1.86928         4.91932         1.89485 
        1.88497         4.80812         1.85705 
        1.90073         4.76538         1.82014 
        1.91647         4.70055         1.78428 
        1.93218         4.64503         1.74945 
        1.94787         4.58665         1.71561 
        1.96363         4.53384         1.68253 
        1.97935         4.48545         1.65039 
        1.99499         4.43057         1.61928 
        2.01064         4.38519         1.58892 
         2.0264         4.31653         1.55915 
        2.04216         4.27317         1.53016 
        2.05781         4.21613         1.50209 
        2.07353         4.18926         1.47463 
        2.08928          4.1062         1.44779 
        2.10499         4.07093          1.4217 
        2.12065         4.07373         1.39633 
        2.13633         4.00088         1.37155 
        2.15211         3.93717         1.34722 
        2.16785         3.89788         1.32355 
        2.18349         3.86443         1.30059 
        2.19916         3.82891         1.27813 
        2.21489         3.78236         1.25613 
        2.23063         3.73246         1.23463 
         2.2463         3.69082         1.21373 
        2.26194         3.65281         1.19337 
        2.27765         3.58752         1.17338 
        2.29341         3.56305         1.15378 
        2.30914         3.52638         1.13468 
        2.32486         3.50614         1.11602 
        2.34061          3.4699         1.09775 
        2.35635         3.43726         1.07991 
        2.37203         3.41513         1.06252 
        2.38768         3.38353         1.04555 
        2.40339         3.32704          1.0289 
        2.41914         3.29474         1.01256 
        2.43483          3.2604        0.996645 
         2.4505         3.24071        0.981094 
        2.46622          3.2031        0.965822 
        2.48195         3.18096        0.950874 
        2.49759         3.14271        0.936323 
        2.51328         3.11591        0.922039 
        2.52906         3.08814        0.907962 
        2.54479         3.05577        0.894232 
        2.56049         3.02891        0.880813 
        2.57618         3.00324        0.867682 
        2.59189         2.99737        0.854798 
        2.60758          2.9571        0.842196 
        2.62325         2.91455        0.829864 
        2.63898         2.88862        0.817736 
        2.65468         2.86299        0.805876 
        2.67044         2.86296        0.794201 
        2.68618         2.83012        0.782784 
        2.70184         2.79879        0.771638 
        2.71755         2.77052         0.76068 
        2.73329         2.74212        0.749919 
        2.74897         2.72192        0.739401 
        2.76462         2.69478        0.729109 
        2.78034         2.68862        0.718969 
        2.79607         2.65288        0.709012 
        2.81179         2.63117        0.699256 
        2.82749         2.60794        0.689693 
        2.84321         2.59117        0.680299 
        2.85893         2.55932        0.671083 
        2.87462         2.55473        0.662054 
        2.89033         2.52963        0.653182 
        2.90605         2.51408        0.644465 
        2.92176         2.48942        0.635912 
        2.93747         2.46462        0.627519 
        2.95318         2.44787        0.619275 
        2.96891         2.43936        0.611176 
        2.98456         2.41941        0.603258 
        3.00023         2.39871        0.595468 
        3.01596         2.37028        0.587792 
        3.03164         2.35367        0.580272 
        3.04738         2.34266        0.572863 
         3.0631         2.32346        0.565586 
        3.07883         2.30668        0.558434 
        3.09456         2.28058        0.551408 
        3.11026         2.27304        0.544513 
        3.12596         2.25182        0.537737 
        3.14163         2.24164        0.531091 
        3.15734         2.22109        0.524543 
        3.17308         2.21099        0.518089 
        3.18879         2.19203        0.511762 
        3.20447         2.16586        0.505549 
         3.2202         2.16915        0.499421 
         3.2359         2.14459        0.493405 
        3.25157          2.1269        0.487502 
        3.26729          2.1103        0.481678 
        3.28304         2.09503        0.475938 
        3.29877         2.08095        0.470299 
        3.31446         2.07121        0.464763 
        3.33014         2.04852        0.459322 
        3.34585         2.04244        0.453959 
        3.36158         2.02278        0.448674 
        3.37727         2.01775        0.443489 
        3.39294          1.9977        0.438392 
        3.40867         1.99148        0.433356 
        3.42439         1.97629        0.428402 
        3.44008         1.95984        0.423535 
        3.45578         1.94656         0.41874 
        3.47153         1.93495        0.414009 
        3.48724          1.9228        0.409359 
        3.50292         1.90402        0.404791 
        3.51859         1.90231        0.400295 
        3.53431         1.88072        0.395854 
        3.55007         1.87631        0.391469 
        3.56577          1.8609        0.387168 
        3.58146         1.85322        0.382933 
        3.59719         1.83799        0.378752 
        3.61292         1.82844        0.374635 
        3.62859         1.81374        0.370594 
        3.64429         1.80238        0.366605 
        3.66003         1.79288        0.362663 
        3.67578         1.78052         0.35878 
        3.69146         1.76682        0.354969 
        3.70712         1.75619         0.35122 
        3.72284         1.74694        0.347511 
        3.73853         1.73985        0.343862 
        3.75422         1.72468        0.340264 
        3.76993         1.71433        0.336715 
        3.78564         1.70317        0.333217 
        3.80137         1.69338        0.329764 
        3.81707         1.68258        0.326367 
        3.83279         1.67975        0.323015 
        3.84853         1.66509        0.319704 
        3.86424          1.6506        0.316447 
        3.87992         1.64399        0.313239 
        3.89561         1.62885        0.310076 
        3.91134          1.6262         0.30695 
        3.92704         1.61472        0.303871 
        3.94273         1.60469        0.300837 
        3.95845         1.59308        0.297839 
        3.97418         1.58887        0.294881 
        3.98988         1.57914        0.291968 
        4.00554         1.56609        0.289101 
        4.02125         1.55907        0.286265 
        4.03698         1.54686        0.283463 
        4.05268         1.53835        0.280704 
        4.06839          1.5262         0.27798 
         4.0841         1.51476        0.275294 
        4.09983         1.50443        0.272638 
        4.11555         1.49757        0.270019 
        4.13124         1.48312        0.267442 
        4.14693         1.47622        0.264896 
        4.16266         1.46854        0.262377 
        4.17839         1.45905        0.259892 
        4.19408         1.45249        0.257445 
        4.20977         1.44257        0.255029 
        4.22551         1.43502        0.252638 
        4.24123         1.42258         0.25028 
        4.25691         1.41339        0.247958 
        4.27259         1.40398        0.245666 
        4.28831         1.40205        0.243397 
        4.30404         1.38949        0.241155 
        4.31974         1.38083        0.238946 
        4.33543         1.37523        0.236766 
        4.35116         1.36736        0.234608 
        4.36688         1.35724        0.232478 
        4.38255         1.35023        0.230382 
        4.39825         1.34542        0.228308 
        4.41398         1.33596        0.226254 
         4.4297          1.3264        0.224229 
        4.44541         1.32014        0.222228 
        4.46111         1.30934        0.220253 
        4.47683         1.30696        0.218301 
        4.49251          1.3013        0.216377 
        4.50819         1.29272        0.214476 
         4.5239         1.28723        0.212595 
        4.53962         1.27762        0.210735 
        4.55535         1.27409        0.208896 
        4.57106         1.26586        0.207081 
        4.58678         1.26396        0.205288 
         4.6025         1.25325        0.203515 
        4.61821          1.2514        0.201764 
        4.63391         1.24467        0.200035 
         4.6496         1.23547        0.198328 
        4.66532         1.23062        0.196637 
        4.68103         1.22551        0.194967 
        4.69673         1.22148        0.193319 
        4.71241         1.21401         0.19169 
        4.72811         1.21017        0.190078 
        4.74384          1.2044        0.188483 
        4.75955         1.20108        0.186908 
        4.77525         1.19117        0.185352 
        4.79096         1.18599        0.183811 
        4.80669         1.18465        0.182288 
         4.8224         1.17749        0.180784 
        4.83809          1.1731        0.179298 
        4.85379         1.16802        0.177827 
         4.8695         1.16268        0.176373 
        4.88521         1.15959        0.174935 
        4.90093         1.15339        0.173513 
        4.91663         1.14921        0.172107 
        4.93234          1.1467        0.170716 
        4.94807         1.13908         0.16934 
        4.96377         1.13627        0.167981 
        4.97943          1.1347         0.16664 
        4.99514         1.13042         0.16531 
        5.01086         1.12217        0.163994 
        5.02654         1.11824        0.162695 
        5.04227         1.11561        0.161407 
          5.058         1.11197        0.160131 
        5.07371         1.10615        0.158873 
        5.08942         1.10279        0.157627 
        5.10513           1.103        0.156395 
        5.12084         1.09485        0.155175 
        5.13656         1.08993        0.153969 
        5.15225         1.08502        0.152777 
        5.16796         1.08311        0.151596 
        5.18369         1.08067        0.150427 
         5.1994         1.07899        0.149271 
        5.21509         1.07124         0.14813 
        5.23079         1.07073        0.146998 
        5.24649         1.06452         0.14588 
        5.26217         1.06262        0.144773 
        5.27788         1.05815        0.143677 
        5.29359         1.05506        0.142592 
        5.30933         1.05214        0.141517 
        5.32504         1.04789        0.140454 
        5.34073         1.04495        0.139403 
        5.35646         1.04155        0.138361 
        5.37218         1.03898         0.13733 
        5.38789         1.03762        0.136311 
        5.40357         1.03485        0.135303 
        5.41929           1.031        0.134303 
        5.43502         1.02774        0.133313 
         5.4507         1.02173        0.132336 
        5.46639         1.02009        0.131368 
        5.48212         1.01692        0.130407 
        5.49786         1.01511        0.129455 
        5.51353         1.01283        0.128518 
        5.52921         1.00737        0.127588 
        5.54495         1.00549        0.126665 
        5.56066         1.00474        0.125752 
        5.57637         1.00305        0.124849 
        5.59207        0.999808        0.123955 
        5.60778        0.996787        0.123069 
        5.62346        0.993503        0.122193 
        5.63916        0.991966        0.121325 
        5.65487        0.987233        0.120465 
         5.6706        0.985781        0.119612 
        5.68633        0.981848        0.118767 
        5.70203        0.982326        0.117932 
        5.71773         0.97781        0.117106 
        5.73344        0.974809        0.116286 
        5.74916        0.972978        0.115474 
        5.76486        0.970362        0.114671 
        5.78054        0.967623        0.113876 
        5.79626         0.96592        0.113087 
          5.812        0.963807        0.112305 
         5.8277        0.960277        0.111532 
        5.84339        0.961183        0.110766 
        5.85911          0.9578        0.110007 
        5.87484        0.956429        0.109254 
        5.89053        0.950875         0.10851 
        5.90623        0.950325        0.107773 
        5.92195        0.946246        0.107041 
        5.93767        0.945091        0.106316 
        5.95336        0.941835        0.105599 
        5.96905        0.939893        0.104889 
        5.98476        0.938069        0.104185 
        6.00048         0.93774        0.103487 
        6.01617        0.934831        0.102796 
        6.03185        0.932447        0.102112 
        6.04756        0.931865        0.101433 
        6.06331        0.927736        0.100759 
        6.07903        0.928087        0.100092 
        6.09473        0.926165       0.0994319 
        6.11044        0.920949       0.0987771 
        6.12616        0.920855       0.0981283 
        6.14186         0.91733       0.0974859 
        6.15755        0.916524       0.0968494 
        6.17326        0.914374        0.096218 
        6.18898         0.91247       0.0955919 
        6.20467        0.911159       0.0949726 
        6.22036        0.907521       0.0943587 
         6.2361        0.905713       0.0937487 
         6.2518        0.904281        0.093145 
        6.26748        0.902951       0.0925479 
        6.28319        0.900309       0.0919545 
        6.29893        0.898589       0.0913657 
        6.31463        0.896867       0.0907831 
        6.33033        0.896741       0.0902057 
        6.34604        0.894119        0.089633 
        6.36177        0.891409       0.0890647 
        6.37747        0.889093       0.0885023 
