# k  (h/Mpc)    Pcb(k)  (Mpc/h)^3    Pcb_linear(k) (Mpc/h)^3   ShotnoiseSubtracted = true
      0.0200456           15395         15714.8 
      0.0350414           11827           12322 
      0.0492313         9544.94         9762.85 
      0.0637834            8052         7938.75 
      0.0800726         6117.81         5996.96 
       0.096163         4529.17         4716.99 
       0.111083         3781.72         3992.93 
       0.126058         3347.36         3319.26 
       0.142273         2819.21         2701.01 
       0.158546         2531.72         2300.94 
        0.17375         2060.13          2001.9 
       0.188953         1964.06         1721.02 
       0.204907         1837.17         1489.79 
       0.220756          1605.5         1316.74 
        0.23588         1428.89         1169.55 
         0.2514         1241.82         1036.31 
       0.267535         1230.46         924.215 
       0.283568         1119.77         830.487 
       0.299022         1055.29         749.953 
       0.314451          1004.2         679.952 
       0.330372         925.754         618.242 
       0.346141          868.69         564.383 
       0.361624         832.338         517.268 
       0.377134         774.298         475.599 
       0.392932         747.627         438.052 
       0.408854         723.918         404.196 
       0.424564         679.226         374.209 
       0.440253         665.899         347.368 
       0.455999         633.943         323.099 
       0.471626         601.509         301.272 
        0.48727         581.977         281.436 
       0.502856         566.281          263.46 
       0.518488         558.972         247.008 
       0.534347         523.009         231.747 
       0.550082         503.761         217.881 
       0.565732         504.057         205.219 
       0.581496          473.67         193.484 
       0.597222         467.606         182.691 
       0.612804         454.469         172.813 
       0.628434         438.619         163.641 
       0.644267         426.522         155.031 
       0.660051         413.595         147.066 
       0.675724         410.724         139.713 
       0.691403         397.277         132.861 
       0.707174         383.372         126.435 
       0.722871         379.318         120.462 
        0.73838         373.433         114.941 
       0.754018         362.081         109.726 
       0.769845         352.122         104.779 
        0.78569         350.103         100.133 
       0.801365         338.813         95.8153 
       0.817031         329.245         91.7554 
       0.832809         325.895         87.9055 
       0.848511         317.365         84.2942 
       0.864097          311.12         80.9113 
       0.879701         306.837         77.7113 
       0.895507         301.066         74.6472 
       0.911279         291.411         71.7553 
        0.92691         288.844         69.0411 
       0.942635         282.842         66.4529 
       0.958396         277.529         63.9924 
       0.974128         272.602         61.6616 
       0.989692         267.437         59.4704 
        1.00528         263.379          57.383 
        1.02113         260.923         55.3636 
        1.03692         254.501         53.4494 
        1.05264         250.357         51.6348 
        1.06832         245.458         49.9078 
        1.08405         240.439         48.2556 
        1.09979         237.858         46.6775 
        1.11537         232.908          45.186 
        1.13105         227.596          43.751 
        1.14679         227.339         42.3731 
        1.16256         222.147          41.052 
        1.17828         218.279         39.7919 
        1.19395         215.135         38.5891 
         1.2097         213.991         37.4302 
        1.22537         208.123         36.3246 
          1.241         207.411         35.2671 
        1.25666         201.821         34.2493 
        1.27241         199.683          33.267 
        1.28819         196.441         32.3217 
        1.30392         193.368          31.416 
        1.31957         192.455         30.5491 
        1.33529         187.919         29.7119 
        1.35108         184.669         28.9029 
        1.36674         183.526         28.1299 
         1.3824         180.276         27.3859 
        1.39811         179.982         26.6665 
        1.41389         175.854         25.9702 
        1.42964         172.703         25.3001 
        1.44531         170.157         24.6569 
        1.46101         168.898         24.0348 
        1.47667         164.749         23.4361 
        1.49229         162.854         22.8594 
        1.50793          161.19         22.3016 
        1.52367         159.271         21.7588 
        1.53953         155.867         21.2305 
        1.55526         153.714          20.724 
        1.57092         152.371         20.2361 
        1.58662         149.431         19.7629 
        1.60235         147.929         19.3039 
        1.61809         146.111         18.8593 
        1.63369         143.738         18.4327 
        1.64941         141.333         18.0163 
        1.66519         139.662         17.6112 
        1.68085         138.854         17.2215 
        1.69652         135.693         16.8436 
        1.71228         134.342         16.4748 
        1.72806         132.525         16.1168 
        1.74368         131.343         15.7731 
        1.75933         129.357         15.4387 
        1.77505         127.306         15.1125 
        1.79081         126.481         14.7952 
         1.8065         124.428         14.4883 
        1.82218         122.124         14.1905 
        1.83797         120.825         13.8989 
        1.85367         119.333         13.6172 
        1.86928         118.059          13.345 
        1.88497         115.461         13.0788 
        1.90073         114.806         12.8189 
        1.91647         112.841         12.5663 
        1.93218         111.491          12.321 
        1.94787         110.257         12.0827 
        1.96363         108.757         11.8497 
        1.97935         106.664         11.6234 
        1.99499         105.787         11.4042 
        2.01064         104.448         11.1904 
         2.0264         102.981         10.9808 
        2.04216         102.045         10.7766 
        2.05781         100.642         10.5789 
        2.07353         99.2971         10.3855 
        2.08928         97.8669         10.1965 
        2.10499         96.2093         10.0127 
        2.12065         95.6415         9.83404 
        2.13633         94.5777         9.65955 
        2.15211         93.2814         9.48819 
        2.16785         91.5729         9.32146 
        2.18349         90.5056         9.15979 
        2.19916         89.8111         9.00162 
        2.21489         88.7073         8.84667 
        2.23063          86.992         8.69526 
         2.2463         86.4023         8.54808 
        2.26194         85.8181         8.40468 
        2.27765         84.0627         8.26384 
        2.29341          83.374         8.12586 
        2.30914         81.9662         7.99132 
        2.32486         81.3767         7.85991 
        2.34061         80.3881         7.73123 
        2.35635         78.9618         7.60556 
        2.37203         77.8936         7.48312 
        2.38768         77.1411         7.36362 
        2.40339         76.4866         7.24631 
        2.41914         74.9853         7.13128 
        2.43483          74.715         7.01916 
         2.4505         73.5251         6.90964 
        2.46622         72.6807         6.80208 
        2.48195         71.7981         6.69681 
        2.49759         71.0406         6.59433 
        2.51328          70.182         6.49373 
        2.52906         69.2863         6.39459 
        2.54479         68.7724         6.29789 
        2.56049         67.7511         6.20339 
        2.57618         67.1708          6.1109 
        2.59189         66.0743         6.02017 
        2.60758         65.4122         5.93142 
        2.62325         64.7905         5.84456 
        2.63898         63.9702         5.75915 
        2.65468         63.1829         5.67562 
        2.67044          62.348          5.5934 
        2.68618         61.9976         5.51299 
        2.70184         61.4768         5.43448 
        2.71755         60.7537         5.35731 
        2.73329           59.84         5.28152 
        2.74897         59.1444         5.20745 
        2.76462         58.4458         5.13496 
        2.78034         57.7006         5.06355 
        2.79607         57.1601         4.99343 
        2.81179         56.4186         4.92471 
        2.82749         55.9798         4.85737 
        2.84321         55.2001         4.79121 
        2.85893         54.5424          4.7263 
        2.87462         53.9658         4.66271 
        2.89033         53.4323         4.60023 
        2.90605         52.6774         4.53884 
        2.92176         52.3705          4.4786 
        2.93747         51.7301         4.41949 
        2.95318         51.0755         4.36143 
        2.96891         50.4706         4.30439 
        2.98456          49.987         4.24862 
        3.00023         49.2672         4.19376 
        3.01596         48.9164         4.13969 
        3.03164         48.1918         4.08674 
        3.04738         47.6605         4.03456 
         3.0631         47.2639          3.9833 
        3.07883         46.7091         3.93294 
        3.09456         46.5015         3.88345 
        3.11026         45.7196         3.83489 
        3.12596         45.3029         3.78717 
        3.14163         44.7209         3.74037 
        3.15734         44.3134         3.69425 
        3.17308         43.8834          3.6488 
        3.18879          43.537         3.60423 
        3.20447         42.7884         3.56048 
         3.2202         42.6235         3.51732 
         3.2359         42.0615         3.47495 
        3.25157         41.7395         3.43338 
        3.26729         41.2535         3.39236 
        3.28304         40.7236         3.35193 
        3.29877         40.3213         3.31222 
        3.31446         39.9036         3.27323 
        3.33014         39.7034         3.23491 
        3.34585         39.2749         3.19714 
        3.36158         38.7857         3.15992 
        3.37727          38.292          3.1234 
        3.39294          37.958          3.0875 
        3.40867         37.4532         3.05204 
        3.42439         37.1945         3.01715 
        3.44008         36.8571         2.98287 
        3.45578         36.3453          2.9491 
        3.47153         36.0098         2.91578 
        3.48724         35.8277         2.88303 
        3.50292         35.4724         2.85086 
        3.51859         34.9078          2.8192 
        3.53431         34.6295         2.78792 
        3.55007         34.2771         2.75704 
        3.56577         33.9291         2.72674 
        3.58146         33.5093         2.69692 
        3.59719         33.3001         2.66747 
        3.61292         32.9684         2.63847 
        3.62859         32.7657         2.61002 
        3.64429         32.3045         2.58192 
        3.66003         32.0169         2.55416 
        3.67578         31.6618         2.52681 
        3.69146          31.446         2.49997 
        3.70712         31.1097         2.47357 
        3.72284         30.7886         2.44745 
        3.73853         30.5955         2.42175 
        3.75422         30.2875         2.39641 
        3.76993         30.0211         2.37141 
        3.78564         29.7198         2.34678 
        3.80137         29.3386         2.32246 
        3.81707         29.0769         2.29853 
        3.83279          28.825         2.27493 
        3.84853         28.6301         2.25161 
        3.86424         28.3003         2.22867 
        3.87992         28.0833         2.20608 
        3.89561         27.8021          2.1838 
        3.91134         27.4923         2.16179 
        3.92704         27.2456          2.1401 
        3.94273         26.9407         2.11874 
        3.95845         26.6648         2.09762 
        3.97418         26.5583         2.07679 
        3.98988         26.2539         2.05627 
        4.00554         25.9905         2.03608 
        4.02125         25.7756         2.01611 
        4.03698         25.4933         1.99637 
        4.05268          25.345         1.97694 
        4.06839         25.0606         1.95776 
         4.0841         24.8364         1.93884 
        4.09983         24.6323         1.92014 
        4.11555         24.4556         1.90169 
        4.13124         24.1719         1.88354 
        4.14693         23.9695          1.8656 
        4.16266         23.6909         1.84787 
        4.17839         23.5128         1.83037 
        4.19408         23.3439         1.81313 
        4.20977         23.0748         1.79612 
        4.22551         22.9431         1.77928 
        4.24123          22.728         1.76267 
        4.25691          22.521         1.74632 
        4.27259         22.2798         1.73017 
        4.28831         22.0954          1.7142 
        4.30404         21.8732         1.69841 
        4.31974         21.7446         1.68285 
        4.33543         21.5236          1.6675 
        4.35116         21.3728          1.6523 
        4.36688         21.1445          1.6373 
        4.38255         20.9827         1.62254 
        4.39825         20.8124         1.60792 
        4.41398         20.6352         1.59346 
         4.4297         20.4651          1.5792 
        4.44541         20.2894         1.56511 
        4.46111         20.0931          1.5512 
        4.47683         19.9027         1.53745 
        4.49251         19.7248          1.5239 
        4.50819         19.5981         1.51051 
         4.5239         19.4247         1.49726 
        4.53962         19.2615         1.48416 
        4.55535          19.087         1.47121 
        4.57106         18.9889         1.45843 
        4.58678         18.7903          1.4458 
         4.6025         18.6369         1.43331 
        4.61821         18.4885         1.42098 
        4.63391         18.3251         1.40881 
         4.6496         18.1711         1.39678 
        4.66532         17.9973         1.38488 
        4.68103         17.8486         1.37312 
        4.69673         17.7177          1.3615 
        4.71241         17.5476         1.35004 
        4.72811         17.4095         1.33868 
        4.74384         17.3033         1.32744 
        4.75955         17.1109         1.31635 
        4.77525          17.015         1.30539 
        4.79096          16.871         1.29455 
        4.80669         16.7363         1.28382 
         4.8224          16.554         1.27322 
        4.83809         16.4395         1.26276 
        4.85379         16.3545          1.2524 
         4.8695         16.1792         1.24216 
        4.88521         16.0585         1.23203 
        4.90093         15.9369         1.22201 
        4.91663         15.8033         1.21212 
        4.93234         15.6642         1.20232 
        4.94807         15.5643         1.19263 
        4.96377         15.4473         1.18306 
        4.97943          15.344         1.17361 
        4.99514         15.2037         1.16424 
        5.01086         15.0783         1.15497 
        5.02654         14.9156         1.14583 
        5.04227         14.8282         1.13675 
          5.058         14.6896         1.12777 
        5.07371         14.6325         1.11891 
        5.08942          14.532         1.11013 
        5.10513         14.3748         1.10146 
        5.12084         14.2716         1.09287 
        5.13656         14.1549         1.08437 
        5.15225         14.0456         1.07598 
        5.16796         13.9002         1.06766 
        5.18369         13.8354         1.05942 
         5.1994         13.7461         1.05129 
        5.21509         13.6148         1.04325 
        5.23079         13.5213         1.03528 
        5.24649         13.4132          1.0274 
        5.26217         13.3537         1.01961 
        5.27788         13.1955         1.01189 
        5.29359         13.1169         1.00425 
        5.30933         12.9942        0.996672 
        5.32504         12.9124        0.989188 
        5.34073         12.8169        0.981789 
        5.35646         12.7249        0.974451 
        5.37218         12.5996        0.967186 
        5.38789         12.5349        0.960008 
        5.40357         12.4181         0.95291 
        5.41929         12.3358        0.945868 
        5.43502         12.2621        0.938897 
         5.4507         12.1703        0.932013 
        5.46639         12.0629        0.925196 
        5.48212         11.9769        0.918432 
        5.49786         11.9149        0.911727 
        5.51353         11.8122        0.905123 
        5.52921         11.7231        0.898577 
        5.54495         11.6416        0.892077 
        5.56066         11.5408        0.885648 
        5.57637         11.4618        0.879283 
        5.59207         11.3774        0.872986 
        5.60778         11.2906        0.866749 
        5.62346         11.2252        0.860581 
        5.63916         11.1418        0.854467 
        5.65487         11.0393         0.84841 
         5.6706         10.9859        0.842404 
        5.68633          10.908        0.836454 
        5.70203         10.8142        0.830574 
        5.71773         10.7411        0.824751 
        5.73344         10.6591        0.818981 
        5.74916         10.5922        0.813261 
        5.76486         10.5077        0.807603 
        5.78054         10.4374        0.802008 
        5.79626         10.3672         0.79645 
          5.812         10.2848        0.790939 
         5.8277         10.2044        0.785497 
        5.84339           10.13        0.780105 
        5.85911          10.061        0.774754 
        5.87484         10.0102        0.769454 
        5.89053          9.9376        0.764214 
        5.90623         9.84399         0.75902 
        5.92195         9.80128        0.753866 
        5.93767         9.73543        0.748762 
        5.95336         9.65551        0.743714 
        5.96905          9.5952        0.738714 
        5.98476         9.54049        0.733754 
        6.00048         9.45642        0.728837 
        6.01617         9.38714        0.723971 
        6.03185         9.30769        0.719156 
        6.04756         9.25838        0.714374 
        6.06331         9.20574        0.709624 
        6.07903         9.13668        0.704928 
        6.09473         9.07834        0.700278 
        6.11044          9.0095        0.695667 
        6.12616         8.94254        0.691097 
        6.14186         8.90608        0.686573 
        6.15755          8.8307         0.68209 
        6.17326         8.77859        0.677643 
        6.18898         8.71135        0.673234 
        6.20467         8.64448        0.668872 
        6.22036         8.58187        0.664549 
         6.2361         8.52576        0.660252 
         6.2518         8.47313        0.656001 
        6.26748         8.42129        0.651796 
        6.28319         8.36604        0.647616 
        6.29893         8.29966         0.64347 
        6.31463         8.24603        0.639367 
        6.33033         8.20548          0.6353 
        6.34604         8.14436        0.631267 
        6.36177         8.09999        0.627264 
        6.37747         8.04314        0.623304 
