# k  (h/Mpc)    Pcb(k)  (Mpc/h)^3    Pcb_linear(k) (Mpc/h)^3   ShotnoiseSubtracted = true
      0.0200456         24392.2         24800.7 
      0.0350414           19975         19446.3 
      0.0492313         14867.7         15407.5 
      0.0637834         11733.7         12528.7 
      0.0800726         8859.28         9464.24 
       0.096163          7575.8         7444.23 
       0.111083         6447.36         6301.53 
       0.126058         5140.78         5238.37 
       0.142273         4444.75         4262.65 
       0.158546         3769.88         3631.28 
        0.17375         3441.07         3159.34 
       0.188953         3249.51         2716.07 
       0.204907         2802.09         2351.15 
       0.220756         2555.22         2078.04 
        0.23588         2301.81         1845.75 
         0.2514         2100.68         1635.48 
       0.267535          2013.4         1458.57 
       0.283568         1819.03         1310.65 
       0.299022          1739.3         1183.56 
       0.314451         1809.76         1073.08 
       0.330372         1637.92         975.692 
       0.346141          1510.1         890.693 
       0.361624         1447.42         816.338 
       0.377134         1396.19         750.578 
       0.392932         1329.43         691.321 
       0.408854         1279.95         637.891 
       0.424564         1258.12         590.567 
       0.440253         1184.66         548.207 
       0.455999         1134.36         509.907 
       0.471626         1138.89         475.459 
        0.48727         1088.16         444.154 
       0.502856         1059.43         415.785 
       0.518488         1019.58         389.822 
       0.534347         986.125         365.737 
       0.550082         949.347         343.854 
       0.565732          929.42         323.872 
       0.581496         906.163         305.351 
       0.597222         897.354         288.318 
       0.612804         874.271         272.728 
       0.628434         840.824         258.254 
       0.644267         820.377         244.665 
       0.660051          809.16         232.096 
       0.675724         797.759         220.491 
       0.691403         765.823         209.678 
       0.707174          749.33         199.536 
       0.722871         741.967          190.11 
        0.73838         722.352         181.397 
       0.754018         712.697         173.167 
       0.769845         698.166          165.36 
        0.78569         681.031         158.028 
       0.801365          662.51         151.213 
       0.817031         653.366         144.806 
       0.832809         640.909          138.73 
       0.848511         626.793         133.031 
       0.864097         620.607         127.692 
       0.879701         622.338         122.642 
       0.895507          599.01         117.806 
       0.911279         594.709         113.242 
        0.92691          580.98         108.959 
       0.942635         572.393         104.874 
       0.958396         562.287         100.991 
       0.974128         551.022         97.3126 
       0.989692         539.039         93.8546 
        1.00528         532.151         90.5603 
        1.02113         521.032         87.3733 
        1.03692         512.979         84.3523 
        1.05264         506.653         81.4887 
        1.06832         496.386         78.7632 
        1.08405         491.222         76.1556 
        1.09979         480.418         73.6652 
        1.11537         470.227         71.3112 
        1.13105         464.822         69.0466 
        1.14679          456.46          66.872 
        1.16256         452.131         64.7872 
        1.17828         444.838         62.7985 
        1.19395          435.62         60.9003 
         1.2097         428.029         59.0713 
        1.22537         422.365         57.3264 
          1.241         414.446         55.6576 
        1.25666           408.6         54.0513 
        1.27241         405.061          52.501 
        1.28819         395.872         51.0092 
        1.30392         392.424         49.5799 
        1.31957         384.718         48.2118 
        1.33529          380.21         46.8906 
        1.35108         379.323         45.6138 
        1.36674         369.475         44.3938 
         1.3824         361.093         43.2197 
        1.39811         358.857         42.0843 
        1.41389         353.909         40.9855 
        1.42964         347.413         39.9279 
        1.44531         341.149         38.9129 
        1.46101         332.925         37.9311 
        1.47667         332.477         36.9862 
        1.49229         328.574         36.0761 
        1.50793         321.052         35.1957 
        1.52367          315.07         34.3391 
        1.53953         311.551         33.5054 
        1.55526             306          32.706 
        1.57092          301.45         31.9361 
        1.58662         297.406         31.1893 
        1.60235         292.997         30.4649 
        1.61809         289.482         29.7632 
        1.63369         284.818           29.09 
        1.64941         281.476         28.4328 
        1.66519         277.153         27.7935 
        1.68085         271.737         27.1786 
        1.69652         268.249          26.582 
        1.71228         264.352         26.0001 
        1.72806         260.985         25.4351 
        1.74368         257.858         24.8927 
        1.75933         254.897          24.365 
        1.77505         250.098         23.8502 
        1.79081         246.756         23.3493 
         1.8065         244.976         22.8651 
        1.82218         238.991          22.395 
        1.83797         236.682         21.9349 
        1.85367         232.419         21.4903 
        1.86928         228.595         21.0608 
        1.88497         226.227         20.6407 
        1.90073         224.082         20.2304 
        1.91647         220.708         19.8318 
        1.93218         217.014         19.4447 
        1.94787         212.738         19.0686 
        1.96363         211.685         18.7009 
        1.97935         207.673         18.3437 
        1.99499         205.567         17.9978 
        2.01064         200.866         17.6604 
         2.0264         199.977         17.3296 
        2.04216         196.235         17.0074 
        2.05781          194.28         16.6954 
        2.07353         192.875         16.3901 
        2.08928         190.308         16.0919 
        2.10499         187.077         15.8018 
        2.12065          184.71         15.5198 
        2.13633         181.923         15.2444 
        2.15211         179.862          14.974 
        2.16785         177.507         14.7109 
        2.18349         175.134         14.4557 
        2.19916         173.725         14.2061 
        2.21489         170.744         13.9616 
        2.23063         169.123         13.7226 
         2.2463         167.139         13.4903 
        2.26194         164.129          13.264 
        2.27765         162.374         13.0418 
        2.29341         160.261          12.824 
        2.30914         158.028         12.6117 
        2.32486         156.526         12.4043 
        2.34061         153.777         12.2012 
        2.35635         151.718         12.0029 
        2.37203         150.846         11.8096 
        2.38768         148.543         11.6211 
        2.40339         146.582         11.4359 
        2.41914         144.706         11.2544 
        2.43483         143.528         11.0775 
         2.4505         141.329         10.9046 
        2.46622         139.381         10.7349 
        2.48195         138.204         10.5687 
        2.49759         135.833          10.407 
        2.51328         134.228         10.2482 
        2.52906         132.967         10.0918 
        2.54479         131.088         9.93917 
        2.56049         129.827         9.79002 
        2.57618         128.219         9.64406 
        2.59189         127.122         9.50086 
        2.60758         126.026          9.3608 
        2.62325         123.833         9.22373 
        2.63898         121.748         9.08893 
        2.65468         120.762         8.95711 
        2.67044         119.742         8.82734 
        2.68618         117.788         8.70045 
        2.70184         116.933         8.57655 
        2.71755         114.967         8.45477 
        2.73329         113.822         8.33516 
        2.74897         112.317         8.21826 
        2.76462         111.265         8.10386 
        2.78034         109.803         7.99116 
        2.79607         108.892         7.88049 
        2.81179         107.515         7.77205 
        2.82749         106.209         7.66577 
        2.84321         105.044         7.56135 
        2.85893         103.929         7.45892 
        2.87462          102.32         7.35856 
        2.89033         101.612         7.25995 
        2.90605         100.337         7.16307 
        2.92176          98.721           7.068 
        2.93747          98.169         6.97471 
        2.95318         97.1641         6.88309 
        2.96891         96.0878         6.79307 
        2.98456         94.8164         6.70505 
        3.00023         93.8594         6.61847 
        3.01596          92.944         6.53315 
        3.03164         92.1002         6.44958 
        3.04738         91.0573         6.36723 
         3.0631          90.001         6.28634 
        3.07883          89.129         6.20685 
        3.09456         88.0502         6.12875 
        3.11026         87.3623         6.05212 
        3.12596         85.9179         5.97681 
        3.14163         85.3591         5.90295 
        3.15734         84.2242         5.83016 
        3.17308         83.2155         5.75843 
        3.18879         82.7991          5.6881 
        3.20447         81.5945         5.61905 
         3.2202         80.5607         5.55094 
         3.2359         80.2239         5.48407 
        3.25157         79.5966         5.41846 
        3.26729         78.2719         5.35373 
        3.28304         77.7898         5.28993 
        3.29877         76.8266         5.22725 
        3.31446         76.2748         5.16572 
        3.33014         75.5535         5.10524 
        3.34585         74.6493         5.04564 
        3.36158         73.8026          4.9869 
        3.37727         73.0808         4.92927 
        3.39294         72.3983         4.87261 
        3.40867         71.3823         4.81664 
        3.42439         70.5549         4.76158 
        3.44008         70.0433         4.70748 
        3.45578         69.7613         4.65419 
        3.47153         68.7177          4.6016 
        3.48724         68.0768         4.54992 
        3.50292         67.5874         4.49915 
        3.51859         66.7569         4.44918 
        3.53431         66.1248         4.39981 
        3.55007         65.4964         4.35108 
        3.56577         64.9168         4.30327 
        3.58146         64.1031          4.2562 
        3.59719          63.586         4.20973 
        3.61292         63.0161         4.16397 
        3.62859         62.3362         4.11906 
        3.64429         61.9351         4.07472 
        3.66003         61.1127         4.03091 
        3.67578          60.488         3.98775 
        3.69146         59.9697         3.94539 
        3.70712          59.255         3.90372 
        3.72284         58.9563         3.86249 
        3.73853         58.1994         3.82194 
        3.75422         57.9084         3.78195 
        3.76993         57.1952          3.7425 
        3.78564         56.7361         3.70363 
        3.80137         56.1069         3.66524 
        3.81707         55.5289         3.62749 
        3.83279         55.1484         3.59023 
        3.84853         54.6827         3.55343 
        3.86424         54.1386         3.51723 
        3.87992         53.5274         3.48158 
        3.89561         53.1342         3.44642 
        3.91134         52.6472         3.41168 
        3.92704         52.1386         3.37745 
        3.94273         51.5379         3.34373 
        3.95845         51.1636         3.31041 
        3.97418         50.6881         3.27753 
        3.98988         50.3846         3.24515 
        4.00554         49.6407         3.21329 
        4.02125         49.2785         3.18177 
        4.03698         48.9382         3.15062 
        4.05268         48.3836         3.11996 
        4.06839         47.9879         3.08968 
         4.0841         47.6024         3.05982 
        4.09983         47.0717         3.03031 
        4.11555         46.7374         3.00119 
        4.13124         46.3062         2.97255 
        4.14693          46.058         2.94425 
        4.16266         45.6285         2.91625 
        4.17839         45.0371         2.88864 
        4.19408         44.7327         2.86144 
        4.20977         44.2626         2.83458 
        4.22551         43.8454         2.80801 
        4.24123         43.5465          2.7818 
        4.25691         43.0214           2.756 
        4.27259         42.8237         2.73051 
        4.28831         42.3977          2.7053 
        4.30404         42.0952         2.68038 
        4.31974          41.695         2.65583 
        4.33543          41.223          2.6316 
        4.35116         40.9575         2.60761 
        4.36688         40.6229         2.58394 
        4.38255         40.2832         2.56064 
        4.39825         39.8983         2.53758 
        4.41398         39.6462         2.51476 
         4.4297         39.1604         2.49225 
        4.44541         38.9842         2.47001 
        4.46111         38.5424         2.44806 
        4.47683         38.3251         2.42636 
        4.49251         37.9949         2.40497 
        4.50819         37.6913         2.38385 
         4.5239         37.3722         2.36294 
        4.53962         36.9067         2.34226 
        4.55535         36.6804         2.32182 
        4.57106         36.4346         2.30165 
        4.58678          36.062         2.28172 
         4.6025         35.7797         2.26202 
        4.61821         35.4788         2.24255 
        4.63391         35.1538         2.22334 
         4.6496         34.9148         2.20436 
        4.66532          34.601         2.18557 
        4.68103         34.3351         2.16701 
        4.69673         33.9004         2.14869 
        4.71241         33.8363         2.13059 
        4.72811          33.559         2.11267 
        4.74384         33.1781         2.09494 
        4.75955         32.8978         2.07743 
        4.77525         32.6457         2.06014 
        4.79096         32.4272         2.04302 
        4.80669         32.1245         2.02608 
         4.8224         31.8809         2.00936 
        4.83809         31.6619         1.99285 
        4.85379         31.2955         1.97651 
         4.8695         31.1348         1.96034 
        4.88521         30.8467         1.94435 
        4.90093         30.5925         1.92855 
        4.91663         30.3659         1.91293 
        4.93234         30.1352         1.89747 
        4.94807         29.9064         1.88217 
        4.96377         29.6813         1.86707 
        4.97943         29.3983         1.85216 
        4.99514         29.1432         1.83738 
        5.01086         28.9687         1.82275 
        5.02654         28.7142         1.80831 
        5.04227          28.488         1.79399 
          5.058         28.3352         1.77982 
        5.07371         28.0778         1.76583 
        5.08942         27.8479         1.75198 
        5.10513         27.6235         1.73829 
        5.12084         27.4646         1.72473 
        5.13656         27.2361         1.71132 
        5.15225           26.99         1.69808 
        5.16796         26.8023         1.68495 
        5.18369         26.5106         1.67195 
         5.1994         26.4208         1.65911 
        5.21509         26.1237         1.64642 
        5.23079         25.9697         1.63385 
        5.24649         25.7286         1.62142 
        5.26217         25.5564         1.60912 
        5.27788         25.3418         1.59694 
        5.29359         25.1811         1.58487 
        5.30933         24.9321         1.57292 
        5.32504         24.8465         1.56111 
        5.34073         24.6213         1.54943 
        5.35646          24.425         1.53785 
        5.37218         24.2591         1.52639 
        5.38789          24.034         1.51506 
        5.40357         23.8749         1.50386 
        5.41929         23.7255         1.49274 
        5.43502         23.5042         1.48174 
         5.4507         23.3446         1.47088 
        5.46639         23.1696         1.46012 
        5.48212         23.0068         1.44944 
        5.49786         22.8282         1.43886 
        5.51353         22.6504         1.42844 
        5.52921          22.484         1.41811 
        5.54495         22.3113         1.40785 
        5.56066         22.2269          1.3977 
        5.57637         21.9717         1.38766 
        5.59207         21.9026         1.37772 
        5.60778         21.6699         1.36788 
        5.62346         21.5331         1.35815 
        5.63916         21.3268          1.3485 
        5.65487         21.2209         1.33894 
         5.6706          21.045         1.32946 
        5.68633         20.9222         1.32007 
        5.70203          20.743         1.31079 
        5.71773         20.5686          1.3016 
        5.73344         20.4551         1.29249 
        5.74916           20.35         1.28347 
        5.76486         20.1882         1.27454 
        5.78054         20.0048         1.26571 
        5.79626         19.8727         1.25694 
          5.812         19.7496         1.24824 
         5.8277          19.567         1.23965 
        5.84339         19.4194         1.23114 
        5.85911         19.3007          1.2227 
        5.87484          19.192         1.21433 
        5.89053         18.9994         1.20606 
        5.90623         18.8885         1.19787 
        5.92195          18.758         1.18973 
        5.93767         18.6088         1.18168 
        5.95336         18.4879         1.17371 
        5.96905         18.3671         1.16582 
        5.98476         18.2262         1.15799 
        6.00048         18.1294         1.15023 
        6.01617         17.9249         1.14255 
        6.03185         17.8453         1.13495 
        6.04756         17.7689         1.12741 
        6.06331         17.5975         1.11991 
        6.07903         17.4864          1.1125 
        6.09473         17.3712         1.10516 
        6.11044         17.2286         1.09788 
        6.12616          17.137         1.09067 
        6.14186         17.0005         1.08353 
        6.15755         16.9241         1.07646 
        6.17326         16.7825         1.06944 
        6.18898         16.6793         1.06248 
        6.20467         16.5549          1.0556 
        6.22036         16.4137         1.04877 
         6.2361         16.3144         1.04199 
         6.2518         16.2448         1.03528 
        6.26748         16.1048         1.02865 
        6.28319         15.9959         1.02205 
        6.29893         15.8686         1.01551 
        6.31463         15.7631         1.00903 
        6.33033         15.6477         1.00261 
        6.34604         15.5786        0.996248 
        6.36177         15.4597        0.989931 
        6.37747         15.3519        0.983681 
