# k  (h/Mpc)    Pcb(k)  (Mpc/h)^3    Pcb_linear(k) (Mpc/h)^3   ShotnoiseSubtracted = true
      0.0200456         5719.01         5784.93 
      0.0350414         4620.59         4535.97 
      0.0492313          3568.1         3593.89 
      0.0637834         2843.67          2922.4 
      0.0800726         2155.12         2207.59 
       0.096163         1771.03         1736.41 
       0.111083         1511.94         1469.87 
       0.126058         1212.76         1221.88 
       0.142273         1003.71         994.291 
       0.158546         866.078          847.02 
        0.17375         768.124         736.936 
       0.188953         677.466          633.54 
       0.204907         569.492          548.42 
       0.220756         519.759         484.716 
        0.23588         464.166         430.533 
         0.2514         413.078         381.486 
       0.267535         391.341         340.221 
       0.283568         344.221         305.718 
       0.299022         324.882         276.072 
       0.314451         316.148         250.303 
       0.330372         274.463         227.586 
       0.346141         254.489          207.76 
       0.361624         240.226         190.416 
       0.377134         220.695         175.077 
       0.392932         214.997         161.255 
       0.408854         202.079         148.792 
       0.424564         193.372         137.753 
       0.440253         175.194         127.873 
       0.455999         164.657         118.939 
       0.471626         159.643         110.904 
        0.48727         154.297         103.602 
       0.502856         141.447         96.9845 
       0.518488         138.599         90.9284 
       0.534347          130.29         85.3104 
       0.550082         126.895         80.2062 
       0.565732         123.955         75.5451 
       0.581496         114.557          71.225 
       0.597222         111.667          67.252 
       0.612804         108.218         63.6156 
       0.628434         105.208         60.2393 
       0.644267         99.8378         57.0697 
       0.660051         96.4199         54.1378 
       0.675724          94.619         51.4308 
       0.691403         92.4528         48.9087 
       0.707174         89.4566          46.543 
       0.722871         87.3647         44.3444 
        0.73838         84.5227         42.3121 
       0.754018          79.872         40.3924 
       0.769845         79.1425         38.5712 
        0.78569         76.5666          36.861 
       0.801365         74.5963         35.2714 
       0.817031         71.9556         33.7769 
       0.832809         70.6743         32.3597 
       0.848511         68.9046         31.0303 
       0.864097         67.6903          29.785 
       0.879701         66.2958          28.607 
       0.895507         63.8364          27.479 
       0.911279         62.9234         26.4145 
        0.92691         60.9604         25.4153 
       0.942635         59.8585         24.4626 
       0.958396         59.4896         23.5568 
       0.974128         57.9982         22.6988 
       0.989692         56.4489         21.8922 
        1.00528         55.4883         21.1238 
        1.02113         54.3375         20.3804 
        1.03692         53.8623         19.6757 
        1.05264         52.6045         19.0078 
        1.06832         51.3749          18.372 
        1.08405         50.3494         17.7638 
        1.09979         50.1962         17.1829 
        1.11537         48.6419         16.6338 
        1.13105         47.5173         16.1056 
        1.14679         46.9484         15.5983 
        1.16256         46.3059          15.112 
        1.17828         45.6348         14.6482 
        1.19395         44.5934         14.2054 
         1.2097         44.3214         13.7787 
        1.22537         43.3951         13.3718 
          1.241         42.6339         12.9825 
        1.25666         41.9991         12.6078 
        1.27241         41.6287         12.2462 
        1.28819         40.3388         11.8982 
        1.30392         40.3392         11.5648 
        1.31957         39.7031         11.2457 
        1.33529         38.9745         10.9375 
        1.35108         38.3256         10.6397 
        1.36674         37.9794         10.3551 
         1.3824         37.2863         10.0813 
        1.39811         36.5287         9.81643 
        1.41389         36.1441         9.56013 
        1.42964         35.7807         9.31343 
        1.44531         35.0181         9.07667 
        1.46101         34.8556         8.84766 
        1.47667         34.3764         8.62726 
        1.49229         33.7564         8.41498 
        1.50793         33.3994         8.20962 
        1.52367         32.9208         8.00982 
        1.53953         32.6301         7.81534 
        1.55526         32.1026         7.62889 
        1.57092         31.7341         7.44931 
        1.58662         31.2609         7.27509 
        1.60235         30.8558         7.10613 
        1.61809         30.5578         6.94247 
        1.63369         30.2506         6.78542 
        1.64941         29.8214         6.63212 
        1.66519         29.2901         6.48302 
        1.68085         28.9274         6.33957 
        1.69652         28.7263         6.20043 
        1.71228          28.418         6.06469 
        1.72806         27.9147         5.93291 
        1.74368         27.6719         5.80638 
        1.75933         27.3741         5.68329 
        1.77505         27.1766          5.5632 
        1.79081         26.8023         5.44638 
         1.8065         26.3867         5.33342 
        1.82218         26.1257         5.22377 
        1.83797         25.9576         5.11646 
        1.85367         25.6444         5.01276 
        1.86928         25.4778         4.91256 
        1.88497          25.054         4.81456 
        1.90073         24.7742         4.71888 
        1.91647          24.503         4.62589 
        1.93218         24.5533          4.5356 
        1.94787         24.1187         4.44786 
        1.96363         23.8974          4.3621 
        1.97935         23.4871         4.27878 
        1.99499         23.3249         4.19811 
        2.01064         23.0742         4.11941 
         2.0264         22.8104         4.04223 
        2.04216          22.661         3.96707 
        2.05781         22.4206          3.8943 
        2.07353         22.1597          3.8231 
        2.08928         21.8073         3.75353 
        2.10499         21.6577         3.68587 
        2.12065         21.4421         3.62009 
        2.13633         21.2971         3.55586 
        2.15211           20.95         3.49278 
        2.16785         20.8968          3.4314 
        2.18349         20.5948         3.37189 
        2.19916         20.4176         3.31367 
        2.21489         20.1813         3.25662 
        2.23063         20.0802         3.20089 
         2.2463         19.8017         3.14671 
        2.26194         19.6337         3.09392 
        2.27765          19.311         3.04207 
        2.29341         19.2124         2.99128 
        2.30914         18.9963         2.94176 
        2.32486         18.8958         2.89338 
        2.34061         18.7199         2.84601 
        2.35635         18.4507         2.79975 
        2.37203         18.3186         2.75468 
        2.38768         18.1306         2.71069 
        2.40339         18.0295          2.6675 
        2.41914         17.7912         2.62516 
        2.43483         17.6051         2.58389 
         2.4505         17.4032         2.54357 
        2.46622         17.3287         2.50398 
        2.48195         17.1295         2.46522 
        2.49759         16.8628          2.4275 
        2.51328          16.872         2.39046 
        2.52906         16.6861         2.35397 
        2.54479         16.4901         2.31837 
        2.56049         16.3152         2.28358 
        2.57618         16.2779         2.24954 
        2.59189         16.0678         2.21614 
        2.60758         15.8634         2.18347 
        2.62325         15.7389         2.15149 
        2.63898         15.6477         2.12005 
        2.65468         15.4196          2.0893 
        2.67044         15.3316         2.05903 
        2.68618         15.2352         2.02943 
        2.70184         15.0163         2.00054 
        2.71755          14.928         1.97213 
        2.73329         14.7446         1.94423 
        2.74897         14.6792         1.91696 
        2.76462         14.5296         1.89028 
        2.78034         14.3694         1.86399 
        2.79607         14.2644         1.83817 
        2.81179         14.1202         1.81288 
        2.82749         14.0231         1.78809 
        2.84321         13.8707         1.76373 
        2.85893         13.7048         1.73984 
        2.87462         13.6861         1.71643 
        2.89033         13.5173         1.69343 
        2.90605          13.415         1.67083 
        2.92176         13.2645         1.64866 
        2.93747         13.1748          1.6269 
        2.95318         13.0433         1.60552 
        2.96891          12.939         1.58453 
        2.98456         12.8083           1.564 
        3.00023         12.7272          1.5438 
        3.01596         12.6186          1.5239 
        3.03164         12.5439         1.50441 
        3.04738         12.4175          1.4852 
         3.0631         12.2449         1.46633 
        3.07883         12.1792         1.44779 
        3.09456         12.1111         1.42957 
        3.11026         12.0257          1.4117 
        3.12596         11.8854         1.39413 
        3.14163         11.8017          1.3769 
        3.15734          11.658         1.35992 
        3.17308          11.609         1.34319 
        3.18879         11.4951         1.32679 
        3.20447         11.4004         1.31068 
         3.2202          11.307         1.29479 
         3.2359         11.1947         1.27919 
        3.25157          11.139         1.26389 
        3.26729         11.0155         1.24879 
        3.28304         10.9087         1.23391 
        3.29877         10.8523         1.21929 
        3.31446         10.7486         1.20494 
        3.33014         10.6617         1.19083 
        3.34585         10.5678         1.17693 
        3.36158         10.4844         1.16323 
        3.37727         10.4319         1.14978 
        3.39294         10.3261         1.13657 
        3.40867         10.2267         1.12351 
        3.42439         10.1572         1.11067 
        3.44008         10.0791         1.09805 
        3.45578         9.98132         1.08562 
        3.47153          9.9031         1.07335 
        3.48724         9.84899          1.0613 
        3.50292         9.73495         1.04946 
        3.51859         9.67212          1.0378 
        3.53431         9.56152         1.02628 
        3.55007         9.50466         1.01492 
        3.56577          9.4089         1.00377 
        3.58146         9.34563        0.992786 
        3.59719           9.263        0.981946 
        3.61292            9.22        0.971272 
        3.62859          9.1573        0.960796 
        3.64429         9.03968        0.950455 
        3.66003         9.00944        0.940235 
        3.67578         8.90764        0.930168 
        3.69146         8.87293        0.920287 
        3.70712         8.79436        0.910567 
        3.72284         8.69552        0.900951 
        3.73853         8.64069        0.891492 
        3.75422         8.58441        0.882164 
        3.76993         8.48952        0.872962 
        3.78564         8.43068        0.863895 
        3.80137         8.39418        0.854942 
        3.81707         8.30282        0.846134 
        3.83279         8.20832        0.837443 
        3.84853         8.17661        0.828861 
        3.86424         8.13831        0.820415 
        3.87992         8.05619          0.8121 
        3.89561         7.98122        0.803899 
        3.91134         7.90621        0.795795 
        3.92704         7.85635        0.787812 
        3.94273         7.79545        0.779946 
        3.95845         7.74909        0.772174 
        3.97418         7.68125        0.764505 
        3.98988         7.63039        0.756951 
        4.00554         7.56303         0.74952 
        4.02125         7.52907        0.742167 
        4.03698         7.44773        0.734902 
        4.05268         7.37741         0.72775 
        4.06839         7.30516        0.720688 
         4.0841         7.27686        0.713722 
        4.09983         7.21611        0.706838 
        4.11555         7.12159        0.700048 
        4.13124         7.08265        0.693365 
        4.14693         7.03348        0.686764 
        4.16266         6.98241        0.680234 
        4.17839         6.93969        0.673793 
        4.19408          6.8831        0.667449 
        4.20977         6.82292        0.661185 
        4.22551         6.78312        0.654985 
        4.24123         6.73001        0.648872 
        4.25691         6.67283        0.642853 
        4.27259         6.62153        0.636909 
        4.28831         6.58174        0.631028 
        4.30404         6.51358        0.625215 
        4.31974         6.47416        0.619489 
        4.33543         6.42431        0.613837 
        4.35116         6.36015        0.608242 
        4.36688         6.31872         0.60272 
        4.38255         6.26616        0.597286 
        4.39825         6.22764        0.591907 
        4.41398         6.17517        0.586584 
         4.4297         6.14056        0.581332 
        4.44541         6.08998        0.576145 
        4.46111         6.06418        0.571026 
        4.47683         5.99885        0.565965 
        4.49251         5.96517        0.560975 
        4.50819         5.92538        0.556047 
         4.5239         5.86835        0.551171 
        4.53962         5.82117        0.546348 
        4.55535         5.78176         0.54158 
        4.57106         5.73207        0.536875 
        4.58678         5.70637        0.532226 
         4.6025         5.65479         0.52763 
        4.61821         5.62398        0.523089 
        4.63391          5.5596        0.518608 
         4.6496          5.5406        0.514181 
        4.66532         5.48666        0.509799 
        4.68103         5.45898         0.50547 
        4.69673         5.41912        0.501195 
        4.71241         5.38586        0.496974 
        4.72811          5.3352        0.492794 
        4.74384          5.3136        0.488657 
        4.75955         5.26114        0.484574 
        4.77525         5.22151         0.48054 
        4.79096         5.19382        0.476547 
        4.80669         5.15296        0.472597 
         4.8224         5.11069        0.468697 
        4.83809         5.08347        0.464844 
        4.85379         5.02981        0.461033 
         4.8695         5.01061        0.457261 
        4.88521         4.98628        0.453533 
        4.90093         4.93359        0.449846 
        4.91663         4.89542        0.446203 
        4.93234         4.87684        0.442597 
        4.94807         4.84031        0.439028 
        4.96377         4.79797        0.435505 
        4.97943         4.77246        0.432028 
        4.99514         4.72737         0.42858 
        5.01086         4.70621        0.425168 
        5.02654         4.67162        0.421801 
        5.04227         4.63711         0.41846 
          5.058         4.60609        0.415154 
        5.07371         4.57605        0.411891 
        5.08942         4.54265        0.408662 
        5.10513         4.51014        0.405467 
        5.12084         4.48218        0.402305 
        5.13656         4.44686        0.399177 
        5.15225         4.41586        0.396087 
        5.16796         4.39757        0.393026 
        5.18369         4.35466        0.389994 
         5.1994         4.32816        0.386999 
        5.21509         4.29299        0.384039 
        5.23079         4.27223        0.381106 
        5.24649         4.24377        0.378205 
        5.26217         4.21142        0.375338 
        5.27788         4.18829        0.372495 
        5.29359         4.15524        0.369682 
        5.30933         4.12873        0.366894 
        5.32504         4.11166        0.364139 
        5.34073         4.08762        0.361415 
        5.35646          4.0507        0.358714 
        5.37218         4.02013         0.35604 
        5.38789         3.99458        0.353397 
        5.40357         3.97394        0.350784 
        5.41929         3.94339        0.348192 
        5.43502         3.91335        0.345626 
         5.4507         3.89833        0.343091 
        5.46639         3.86229        0.340582 
        5.48212         3.84567        0.338092 
        5.49786         3.82863        0.335624 
        5.51353         3.79503        0.333193 
        5.52921         3.77384        0.330783 
        5.54495         3.74439         0.32839 
        5.56066         3.72997        0.326024 
        5.57637         3.69892        0.323681 
        5.59207         3.67451        0.321363 
        5.60778         3.65569        0.319067 
        5.62346         3.63175        0.316796 
        5.63916         3.61177        0.314546 
        5.65487         3.58399        0.312316 
         5.6706         3.56119        0.310105 
        5.68633         3.54801        0.307915 
        5.70203         3.51898         0.30575 
        5.71773         3.49131        0.303607 
        5.73344          3.4807        0.301482 
        5.74916         3.45322        0.299377 
        5.76486         3.43284        0.297294 
        5.78054         3.41065        0.295234 
        5.79626         3.38206        0.293188 
          5.812         3.36355         0.29116 
         5.8277         3.34731        0.289156 
        5.84339         3.33279        0.287171 
        5.85911         3.30716        0.285202 
        5.87484          3.2874        0.283251 
        5.89053         3.26508        0.281322 
        5.90623         3.24686         0.27941 
        5.92195          3.2284        0.277512 
        5.93767         3.21105        0.275633 
        5.95336         3.18564        0.273775 
        5.96905         3.16428        0.271935 
        5.98476         3.14601        0.270109 
        6.00048         3.12985        0.268299 
        6.01617         3.11044        0.266508 
        6.03185         3.09484        0.264735 
        6.04756         3.06657        0.262974 
        6.06331         3.05662        0.261226 
        6.07903         3.03771        0.259497 
        6.09473         3.01822        0.257786 
        6.11044         2.99761        0.256088 
        6.12616         2.98496        0.254406 
        6.14186         2.96977        0.252741 
        6.15755         2.94777         0.25109 
        6.17326         2.92986        0.249453 
        6.18898         2.90868         0.24783 
        6.20467         2.89434        0.246224 
        6.22036         2.88402        0.244633 
         6.2361         2.86409        0.243051 
         6.2518         2.84591        0.241486 
        6.26748         2.83212        0.239938 
        6.28319         2.81024          0.2384 
        6.29893         2.80122        0.236873 
        6.31463         2.78656        0.235363 
        6.33033         2.76935        0.233866 
        6.34604         2.74803        0.232381 
        6.36177         2.73716        0.230908 
        6.37747         2.72029         0.22945 
