# k  (h/Mpc)    Pcb(k)  (Mpc/h)^3    Pcb_linear(k) (Mpc/h)^3   ShotnoiseSubtracted = true
      0.0200456         26737.5         27203.3 
      0.0350414           21920         21330.2 
      0.0492313         16254.5         16900.1 
      0.0637834         12824.2         13742.4 
      0.0800726            9681         10381.1 
       0.096163         8305.01         8165.39 
       0.111083         7058.56         6911.99 
       0.126058         5638.06         5745.83 
       0.142273         4891.24          4675.6 
       0.158546          4139.2         3983.06 
        0.17375         3793.84          3465.4 
       0.188953         3605.82         2979.19 
       0.204907         3111.68         2578.91 
       0.220756          2843.1         2279.35 
        0.23588         2562.19         2024.56 
         0.2514         2345.41         1793.92 
       0.267535         2244.26         1599.87 
       0.283568         2036.66         1437.62 
       0.299022         1946.17         1298.21 
       0.314451         2023.36         1177.04 
       0.330372         1847.89         1070.21 
       0.346141         1709.43         976.979 
       0.361624         1634.56         895.421 
       0.377134         1583.82          823.29 
       0.392932         1501.88         758.293 
       0.408854         1451.52         699.687 
       0.424564         1426.85         647.778 
       0.440253         1352.78         601.315 
       0.455999         1294.08         559.304 
       0.471626         1290.95         521.519 
        0.48727         1240.13         487.181 
       0.502856         1216.06         456.064 
       0.518488         1163.97         427.586 
       0.534347         1128.67         401.167 
       0.550082         1093.11         377.165 
       0.565732         1066.92         355.247 
       0.581496         1038.46         334.932 
       0.597222         1033.29         316.249 
       0.612804         1002.91         299.149 
       0.628434         967.752         283.272 
       0.644267         946.886         268.367 
       0.660051         930.296          254.58 
       0.675724         919.724         241.851 
       0.691403         880.124          229.99 
       0.707174         863.532         218.866 
       0.722871         857.563         208.527 
        0.73838         829.074          198.97 
       0.754018         823.816         189.943 
       0.769845         803.236         181.379 
        0.78569         783.232         173.337 
       0.801365         765.151         165.862 
       0.817031         752.814         158.834 
       0.832809         737.093         152.169 
       0.848511         716.574         145.918 
       0.864097         710.401         140.062 
       0.879701         711.604         134.523 
       0.895507          690.16         129.219 
       0.911279          683.73         124.213 
        0.92691         667.943         119.514 
       0.942635         654.615         115.034 
       0.958396         648.862         110.775 
       0.974128         632.179          106.74 
       0.989692         621.246         102.947 
        1.00528         610.572         99.3334 
        1.02113         598.185         95.8376 
        1.03692         587.048         92.5239 
        1.05264         581.184         89.3829 
        1.06832         570.794         86.3933 
        1.08405         561.941         83.5332 
        1.09979          550.94         80.8015 
        1.11537         537.825         78.2195 
        1.13105         532.491         75.7355 
        1.14679         523.727         73.3502 
        1.16256         517.105         71.0634 
        1.17828         509.657         68.8821 
        1.19395         498.382            66.8 
         1.2097         487.169         64.7938 
        1.22537         483.085         62.8799 
          1.241         472.243         61.0494 
        1.25666         464.415         59.2875 
        1.27241         462.205         57.5871 
        1.28819         452.292         55.9507 
        1.30392         446.822         54.3829 
        1.31957          437.44         52.8823 
        1.33529         432.864         51.4331 
        1.35108         431.787         50.0326 
        1.36674         422.607         48.6945 
         1.3824         411.844         47.4066 
        1.39811         409.602         46.1612 
        1.41389         404.229         44.9559 
        1.42964         395.916         43.7959 
        1.44531         391.605         42.6825 
        1.46101         380.728         41.6056 
        1.47667           379.2         40.5692 
        1.49229         375.646          39.571 
        1.50793         366.137         38.6053 
        1.52367         361.155         37.6657 
        1.53953          355.31         36.7512 
        1.55526         347.841         35.8744 
        1.57092         343.807         35.0299 
        1.58662         340.483         34.2107 
        1.60235         334.436         33.4162 
        1.61809         328.917         32.6466 
        1.63369         325.509          31.908 
        1.64941         320.034         31.1872 
        1.66519         317.066          30.486 
        1.68085         309.007         29.8115 
        1.69652         305.805         29.1572 
        1.71228         301.346         28.5188 
        1.72806         297.822         27.8992 
        1.74368         294.702         27.3042 
        1.75933         291.093         26.7254 
        1.77505         285.997         26.1607 
        1.79081         282.141         25.6113 
         1.8065          279.48         25.0801 
        1.82218         272.996         24.5645 
        1.83797         270.668         24.0599 
        1.85367         265.961         23.5722 
        1.86928         262.229          23.101 
        1.88497         259.098         22.6402 
        1.90073         256.153         22.1903 
        1.91647         252.319          21.753 
        1.93218         248.708         21.3284 
        1.94787         244.778         20.9158 
        1.96363         242.984         20.5125 
        1.97935         237.004         20.1207 
        1.99499         235.998         19.7414 
        2.01064         230.452         19.3713 
         2.0264         228.302         19.0084 
        2.04216         225.495         18.6549 
        2.05781         221.751         18.3127 
        2.07353         219.967         17.9779 
        2.08928          216.59         17.6508 
        2.10499          214.76         17.3326 
        2.12065         211.485         17.0233 
        2.13633         208.479         16.7212 
        2.15211         205.047         16.4246 
        2.16785         203.387          16.136 
        2.18349         199.924         15.8561 
        2.19916         198.985         15.5823 
        2.21489         195.608         15.3141 
        2.23063         193.743          15.052 
         2.2463         190.439         14.7972 
        2.26194          187.86          14.549 
        2.27765         186.538         14.3052 
        2.29341         184.109         14.0663 
        2.30914         181.329         13.8334 
        2.32486         180.058          13.606 
        2.34061         176.629         13.3832 
        2.35635         174.462         13.1657 
        2.37203         173.298         12.9537 
        2.38768         170.702         12.7469 
        2.40339         167.939         12.5438 
        2.41914         166.706         12.3447 
        2.43483         164.818         12.1506 
         2.4505         162.372          11.961 
        2.46622          160.56         11.7748 
        2.48195          158.62         11.5926 
        2.49759          157.08         11.4152 
        2.51328         154.109          11.241 
        2.52906         152.578         11.0694 
        2.54479         150.905          10.902 
        2.56049         149.493         10.7384 
        2.57618          147.44         10.5783 
        2.59189         146.212         10.4213 
        2.60758         145.447         10.2676 
        2.62325         142.723         10.1173 
        2.63898         140.693         9.96942 
        2.65468         139.488         9.82483 
        2.67044         138.596         9.68249 
        2.68618         136.077          9.5433 
        2.70184         135.084         9.40741 
        2.71755         133.281         9.27382 
        2.73329         131.681         9.14263 
        2.74897          129.78          9.0144 
        2.76462         128.589         8.88891 
        2.78034         127.183          8.7653 
        2.79607         126.055         8.64391 
        2.81179         124.275         8.52496 
        2.82749         123.106         8.40838 
        2.84321         121.837         8.29386 
        2.85893         120.579          8.1815 
        2.87462         118.672         8.07142 
        2.89033         117.972         7.96326 
        2.90605         116.182         7.85699 
        2.92176         114.683         7.75271 
        2.93747         113.575         7.65039 
        2.95318         112.931         7.54988 
        2.96891         111.288         7.45114 
        2.98456         110.344          7.3546 
        3.00023         109.007         7.25964 
        3.01596         107.902         7.16605 
        3.03164         106.634         7.07438 
        3.04738         105.613         6.98405 
         3.0631         104.473         6.89533 
        3.07883         103.365         6.80814 
        3.09456         102.303         6.72248 
        3.11026           101.1         6.63842 
        3.12596         99.8356         6.55581 
        3.14163         98.4892         6.47479 
        3.15734         97.7863         6.39496 
        3.17308         96.7164         6.31628 
        3.18879         95.7552         6.23914 
        3.20447           94.68          6.1634 
         3.2202         93.7325         6.08868 
         3.2359         92.8979         6.01534 
        3.25157         92.0359         5.94337 
        3.26729         90.8904         5.87237 
        3.28304         90.2775         5.80239 
        3.29877         88.9827         5.73364 
        3.31446          88.128         5.66615 
        3.33014         87.6156         5.59981 
        3.34585         86.5387         5.53443 
        3.36158         85.4762            5.47 
        3.37727         84.6527         5.40679 
        3.39294         84.0021         5.34465 
        3.40867         82.9987         5.28325 
        3.42439         82.0213         5.22285 
        3.44008         81.0533         5.16352 
        3.45578         80.5452         5.10506 
        3.47153         79.6872         5.04738 
        3.48724         78.8203         4.99069 
        3.50292         78.3032           4.935 
        3.51859         77.4568         4.88019 
        3.53431         76.7396         4.82605 
        3.55007         75.9264         4.77259 
        3.56577         75.0529         4.72015 
        3.58146          74.395         4.66852 
        3.59719          73.743         4.61755 
        3.61292         73.1043         4.56735 
        3.62859         72.2445         4.51809 
        3.64429         71.8544         4.46946 
        3.66003         71.0823          4.4214 
        3.67578          70.266         4.37406 
        3.69146         69.6917          4.3276 
        3.70712         68.8143         4.28189 
        3.72284          68.351         4.23667 
        3.73853         67.7056         4.19219 
        3.75422         67.1649         4.14833 
        3.76993         66.4502         4.10505 
        3.78564         65.7321         4.06242 
        3.80137         65.3396         4.02031 
        3.81707         64.7081          3.9789 
        3.83279         63.9235         3.93803 
        3.84853         63.6351         3.89767 
        3.86424         62.8566         3.85796 
        3.87992         62.0621         3.81885 
        3.89561         61.8592         3.78029 
        3.91134         61.1862         3.74218 
        3.92704         60.6447         3.70464 
        3.94273         59.8887         3.66765 
        3.95845         59.3939          3.6311 
        3.97418         58.9278         3.59504 
        3.98988         58.5335         3.55952 
        4.00554         57.8151         3.52458 
        4.02125         57.3833            3.49 
        4.03698         56.8651         3.45583 
        4.05268         56.4558          3.4222 
        4.06839           55.88         3.38899 
         4.0841         55.4139         3.35624 
        4.09983         54.9228         3.32387 
        4.11555         54.5214         3.29193 
        4.13124         53.9522         3.26051 
        4.14693         53.3974         3.22947 
        4.16266         53.0229         3.19876 
        4.17839         52.5402         3.16847 
        4.19408         52.0264         3.13864 
        4.20977         51.6428         3.10918 
        4.22551         51.1908         3.08003 
        4.24123         50.7861         3.05128 
        4.25691         50.2363         3.02298 
        4.27259         49.9064         2.99503 
        4.28831         49.4669         2.96737 
        4.30404         49.1312         2.94004 
        4.31974         48.7036         2.91311 
        4.33543          48.137         2.88653 
        4.35116         47.8741         2.86023 
        4.36688         47.2994         2.83425 
        4.38255         46.9938          2.8087 
        4.39825         46.5772         2.78341 
        4.41398         46.0474         2.75838 
         4.4297         45.8361         2.73368 
        4.44541          45.349         2.70929 
        4.46111         44.8522         2.68522 
        4.47683         44.6437         2.66142 
        4.49251         44.2646         2.63795 
        4.50819         43.9334         2.61478 
         4.5239         43.5312         2.59185 
        4.53962         43.1143         2.56917 
        4.55535         42.7955         2.54675 
        4.57106         42.5671         2.52463 
        4.58678         42.0937         2.50276 
         4.6025         41.6768         2.48115 
        4.61821         41.4353          2.4598 
        4.63391         41.0656         2.43873 
         4.6496         40.8093         2.41791 
        4.66532         40.4205          2.3973 
        4.68103         40.0574         2.37694 
        4.69673         39.8001         2.35684 
        4.71241          39.438         2.33699 
        4.72811         39.0993         2.31734 
        4.74384         38.8074         2.29788 
        4.75955         38.5131         2.27868 
        4.77525         38.1146         2.25971 
        4.79096          37.862         2.24093 
        4.80669          37.577         2.22236 
         4.8224         37.2807         2.20402 
        4.83809         36.9556          2.1859 
        4.85379         36.7247         2.16798 
         4.8695         36.4332         2.15024 
        4.88521         36.0405         2.13271 
        4.90093         35.8271         2.11537 
        4.91663         35.5257         2.09824 
        4.93234         35.2032         2.08129 
        4.94807         34.9374          2.0645 
        4.96377         34.6726         2.04794 
        4.97943         34.3817         2.03159 
        4.99514         34.1293         2.01538 
        5.01086         33.9012         1.99933 
        5.02654          33.623         1.98349 
        5.04227         33.3355         1.96779 
          5.058         33.1054         1.95224 
        5.07371         32.8405         1.93689 
        5.08942         32.5686         1.92171 
        5.10513         32.3679         1.90668 
        5.12084         32.1398         1.89181 
        5.13656         31.8634         1.87711 
        5.15225         31.6287         1.86258 
        5.16796          31.403         1.84818 
        5.18369         31.1219         1.83392 
         5.1994         30.9296         1.81984 
        5.21509         30.6364         1.80592 
        5.23079         30.3654         1.79213 
        5.24649         30.1643         1.77849 
        5.26217         29.9804           1.765 
        5.27788         29.7087         1.75164 
        5.29359         29.5237         1.73841 
        5.30933         29.2696          1.7253 
        5.32504         29.0699         1.71234 
        5.34073         28.8567         1.69953 
        5.35646          28.634         1.68683 
        5.37218         28.4431         1.67426 
        5.38789         28.2257         1.66183 
        5.40357         27.9927         1.64954 
        5.41929         27.8125         1.63735 
        5.43502         27.5536         1.62529 
         5.4507          27.419         1.61337 
        5.46639         27.1329         1.60157 
        5.48212         26.9782         1.58986 
        5.49786         26.7735         1.57825 
        5.51353         26.5379         1.56682 
        5.52921         26.3929         1.55549 
        5.54495         26.1824         1.54424 
        5.56066         26.0212         1.53311 
        5.57637         25.7856         1.52209 
        5.59207         25.6258         1.51119 
        5.60778         25.3922         1.50039 
        5.62346         25.2618         1.48972 
        5.63916         25.0436         1.47913 
        5.65487         24.8505         1.46865 
         5.6706         24.7553         1.45825 
        5.68633         24.5214         1.44795 
        5.70203         24.3311         1.43777 
        5.71773         24.1874         1.42769 
        5.73344         23.9792          1.4177 
        5.74916         23.8385          1.4078 
        5.76486         23.6688         1.39801 
        5.78054         23.4641         1.38832 
        5.79626         23.3377          1.3787 
          5.812         23.1402         1.36916 
         5.8277         23.0007         1.35974 
        5.84339         22.7922         1.35041 
        5.85911         22.6456         1.34114 
        5.87484         22.5636         1.33197 
        5.89053         22.3466          1.3229 
        5.90623         22.2047         1.31391 
        5.92195          21.989         1.30499 
        5.93767         21.8389         1.29615 
        5.95336         21.6898         1.28741 
        5.96905         21.5291         1.27876 
        5.98476         21.3582         1.27017 
        6.00048         21.2622         1.26166 
        6.01617         21.1109         1.25324 
        6.03185         20.9715          1.2449 
        6.04756         20.8273         1.23662 
        6.06331         20.6803          1.2284 
        6.07903         20.5318         1.22027 
        6.09473         20.3689         1.21222 
        6.11044         20.2332         1.20424 
        6.12616         20.1309         1.19633 
        6.14186         20.0056          1.1885 
        6.15755         19.8225         1.18074 
        6.17326          19.709         1.17304 
        6.18898         19.5639         1.16541 
        6.20467         19.4291         1.15786 
        6.22036         19.2666         1.15037 
         6.2361         19.1561         1.14294 
         6.2518         19.0183         1.13558 
        6.26748         18.8681          1.1283 
        6.28319         18.7842         1.12106 
        6.29893         18.6624         1.11388 
        6.31463         18.5534         1.10678 
        6.33033          18.389         1.09974 
        6.34604         18.3158         1.09276 
        6.36177         18.1753         1.08583 
        6.37747         18.0429         1.07897 
