# k  (h/Mpc)    Pcb(k)  (Mpc/h)^3    Pcb_linear(k) (Mpc/h)^3   ShotnoiseSubtracted = true
      0.0200456         11088.3         11231.6 
      0.0350414          9006.9         8806.76 
      0.0492313         6869.47         6977.66 
      0.0637834         5448.08         5673.95 
      0.0800726         4122.98         4286.12 
       0.096163         3442.34         3371.31 
       0.111083         2942.56         2853.81 
       0.126058         2344.08         2372.33 
       0.142273          1970.1         1930.45 
       0.158546         1695.87         1644.52 
        0.17375         1514.84         1430.79 
       0.188953         1369.37         1230.04 
       0.204907         1162.47         1064.78 
       0.220756         1058.31         941.093 
        0.23588         949.569         835.895 
         0.2514         847.872         740.669 
       0.267535         818.542         660.551 
       0.283568         720.242         593.562 
       0.299022         688.931         536.004 
       0.314451         696.648         485.972 
       0.330372         599.869         441.867 
       0.346141         557.246         403.373 
       0.361624         533.294           369.7 
       0.377134         500.488         339.918 
       0.392932         485.943         313.082 
       0.408854         461.668         288.885 
       0.424564         446.771         267.453 
       0.440253         405.293          248.27 
       0.455999         388.768         230.924 
       0.471626         390.153         215.324 
        0.48727         370.561         201.147 
       0.502856         340.995         188.299 
       0.518488         341.883         176.541 
       0.534347         317.866         165.633 
       0.550082         309.256         155.723 
       0.565732         307.213         146.674 
       0.581496         292.238         138.286 
       0.597222         284.692         130.572 
       0.612804         277.642         123.512 
       0.628434         266.265         116.957 
       0.644267         254.957         110.803 
       0.660051         250.326          105.11 
       0.675724         248.493         99.8548 
       0.691403         240.624          94.958 
       0.707174         232.757         90.3649 
       0.722871         229.134         86.0962 
        0.73838         227.466         82.1504 
       0.754018         215.115         78.4232 
       0.769845         214.577         74.8874 
        0.78569         209.466         71.5669 
       0.801365         204.536         68.4807 
       0.817031         198.876          65.579 
       0.832809         196.046         62.8274 
       0.848511         191.126         60.2464 
       0.864097         186.715         57.8286 
       0.879701         185.573         55.5415 
       0.895507         180.605         53.3515 
       0.911279         175.539         51.2846 
        0.92691         173.192         49.3448 
       0.942635          171.08         47.4949 
       0.958396         167.493         45.7364 
       0.974128         163.758         44.0705 
       0.989692         159.561         42.5045 
        1.00528         158.149         41.0126 
        1.02113         154.573         39.5693 
        1.03692         152.711         38.2011 
        1.05264         150.486         36.9042 
        1.06832         147.607         35.6699 
        1.08405         145.155          34.489 
        1.09979         144.285         33.3611 
        1.11537         140.588         32.2951 
        1.13105         139.228         31.2695 
        1.14679         136.615         30.2847 
        1.16256         134.501         29.3405 
        1.17828         132.659         28.4399 
        1.19395         129.275         27.5803 
         1.2097          128.87         26.7519 
        1.22537         126.228         25.9617 
          1.241         125.157          25.206 
        1.25666         121.463         24.4785 
        1.27241         119.374         23.7764 
        1.28819         118.532         23.1008 
        1.30392         116.147         22.4535 
        1.31957         114.626          21.834 
        1.33529         113.266         21.2356 
        1.35108         111.973         20.6574 
        1.36674         109.944         20.1049 
         1.3824         109.462         19.5732 
        1.39811         106.418          19.059 
        1.41389         105.696         18.5613 
        1.42964         103.569         18.0824 
        1.44531          102.35         17.6227 
        1.46101         101.006         17.1781 
        1.47667         100.257         16.7501 
        1.49229          99.122          16.338 
        1.50793         97.1364         15.9393 
        1.52367         96.2548         15.5513 
        1.53953         94.5765         15.1738 
        1.55526         93.4116         14.8118 
        1.57092         92.9126         14.4631 
        1.58662         91.4322         14.1249 
        1.60235         89.8157         13.7968 
        1.61809          89.055          13.479 
        1.63369         87.5297         13.1741 
        1.64941         87.3957         12.8765 
        1.66519          85.409          12.587 
        1.68085         84.5465         12.3085 
        1.69652         82.7292         12.0384 
        1.71228         82.2231         11.7748 
        1.72806         81.2382          11.519 
        1.74368         80.0408         11.2733 
        1.75933         79.2525         11.0343 
        1.77505         78.6124         10.8012 
        1.79081         77.1266         10.5743 
         1.8065         76.8098          10.355 
        1.82218         74.9789         10.1421 
        1.83797         74.6641         9.93379 
        1.85367         73.5075         9.73245 
        1.86928         72.6547         9.53792 
        1.88497         71.8976         9.34765 
        1.90073         70.9168         9.16187 
        1.91647         69.8408         8.98132 
        1.93218         69.2909         8.80603 
        1.94787         68.3784         8.63568 
        1.96363         67.3703         8.46918 
        1.97935         66.7449         8.30741 
        1.99499         65.9827         8.15078 
        2.01064         65.2185         7.99798 
         2.0264         64.1979         7.84814 
        2.04216         63.5523         7.70221 
        2.05781         62.7878         7.56093 
        2.07353          61.985         7.42269 
        2.08928         61.3568         7.28761 
        2.10499          60.569         7.15626 
        2.12065         60.1035         7.02854 
        2.13633         59.3662         6.90384 
        2.15211         58.5049         6.78136 
        2.16785         57.6778         6.66219 
        2.18349         57.0508         6.54665 
        2.19916         56.3083          6.4336 
        2.21489         55.8853         6.32285 
        2.23063         54.9088         6.21464 
         2.2463         54.5162         6.10945 
        2.26194         54.0129         6.00696 
        2.27765         53.1946          5.9063 
        2.29341         52.4156         5.80768 
        2.30914         51.8306         5.71152 
        2.32486         51.3234          5.6176 
        2.34061         50.9601         5.52564 
        2.35635         50.0919         5.43581 
        2.37203         49.7495          5.3483 
        2.38768         49.0871          5.2629 
        2.40339         48.5766         5.17905 
        2.41914         48.0638         5.09684 
        2.43483         47.3418         5.01671 
         2.4505         46.9413         4.93843 
        2.46622         46.4499         4.86156 
        2.48195         45.7911         4.78632 
        2.49759         45.2942         4.71307 
        2.51328         44.9174         4.64117 
        2.52906         44.3426         4.57032 
        2.54479         43.8668         4.50121 
        2.56049            43.3         4.43366 
        2.57618         42.8897         4.36756 
        2.59189         42.4216         4.30271 
        2.60758         41.8644         4.23928 
        2.62325         41.4632          4.1772 
        2.63898         41.0406         4.11615 
        2.65468         40.6609         4.05646 
        2.67044         40.2433         3.99769 
        2.68618         39.9074         3.94022 
        2.70184         39.2165         3.88411 
        2.71755         39.0129         3.82896 
        2.73329         38.3302         3.77479 
        2.74897         38.0292         3.72185 
        2.76462         37.5553         3.67004 
        2.78034         37.2892           3.619 
        2.79607         36.8051         3.56888 
        2.81179         36.4485         3.51977 
        2.82749         36.0205         3.47164 
        2.84321         35.6123         3.42435 
        2.85893         35.2486         3.37796 
        2.87462         34.8149         3.33251 
        2.89033         34.6229         3.28785 
        2.90605         34.2219         3.24398 
        2.92176         33.9099         3.20093 
        2.93747         33.5737         3.15868 
        2.95318         33.1472         3.11718 
        2.96891         32.8975         3.07641 
        2.98456         32.5373         3.03655 
        3.00023         32.1081         2.99734 
        3.01596         31.8641         2.95871 
        3.03164         31.5754         2.92086 
        3.04738         31.2678         2.88356 
         3.0631         30.9315         2.84693 
        3.07883         30.5354         2.81093 
        3.09456         30.1348         2.77556 
        3.11026         29.8827         2.74086 
        3.12596         29.6141         2.70675 
        3.14163         29.3197          2.6733 
        3.15734          28.999         2.64034 
        3.17308         28.6966         2.60785 
        3.18879         28.4264           2.576 
        3.20447          28.139         2.54473 
         3.2202          27.826         2.51388 
         3.2359         27.5464          2.4836 
        3.25157         27.3069         2.45389 
        3.26729         27.0084         2.42457 
        3.28304         26.6668         2.39568 
        3.29877         26.4489         2.36729 
        3.31446         26.1238         2.33943 
        3.33014         25.9684         2.31204 
        3.34585         25.7077         2.28505 
        3.36158         25.4192         2.25844 
        3.37727         25.1925         2.23235 
        3.39294         24.9043         2.20669 
        3.40867         24.6908         2.18134 
        3.42439         24.5026          2.1564 
        3.44008         24.2021          2.1319 
        3.45578         24.0949         2.10777 
        3.47153         23.7289         2.08395 
        3.48724         23.5009         2.06055 
        3.50292         23.2831         2.03755 
        3.51859         23.0506         2.01492 
        3.53431         22.8233         1.99257 
        3.55007         22.6027          1.9705 
        3.56577          22.463         1.94885 
        3.58146         22.1903         1.92753 
        3.59719         22.0114         1.90648 
        3.61292          21.778         1.88576 
        3.62859         21.5497         1.86542 
        3.64429         21.3569         1.84534 
        3.66003         21.2289          1.8255 
        3.67578         21.0146         1.80595 
        3.69146          20.791         1.78677 
        3.70712         20.5832          1.7679 
        3.72284         20.3941         1.74923 
        3.73853         20.2096         1.73086 
        3.75422         19.9157         1.71275 
        3.76993         19.8505         1.69489 
        3.78564         19.6651         1.67728 
        3.80137         19.4806          1.6599 
        3.81707         19.2827          1.6428 
        3.83279         19.1276         1.62593 
        3.84853          18.933         1.60926 
        3.86424         18.7469         1.59287 
        3.87992         18.5676         1.57672 
        3.89561         18.3961          1.5608 
        3.91134         18.2179         1.54506 
        3.92704         18.0497         1.52957 
        3.94273         17.9036         1.51429 
        3.95845         17.7271          1.4992 
        3.97418          17.548         1.48431 
        3.98988         17.4445         1.46965 
        4.00554         17.3243         1.45522 
        4.02125         17.0478         1.44094 
        4.03698         16.9207         1.42684 
        4.05268         16.8127         1.41295 
        4.06839         16.6552         1.39924 
         4.0841         16.4953         1.38572 
        4.09983          16.305         1.37235 
        4.11555         16.1752         1.35917 
        4.13124         16.0576         1.34619 
        4.14693         15.9545         1.33338 
        4.16266         15.8243          1.3207 
        4.17839         15.6471         1.30819 
        4.19408          15.482         1.29588 
        4.20977         15.3574         1.28371 
        4.22551         15.2035         1.27168 
        4.24123         15.1148         1.25981 
        4.25691         14.9381         1.24812 
        4.27259         14.8247         1.23658 
        4.28831         14.7435         1.22516 
        4.30404         14.5976         1.21388 
        4.31974         14.4726         1.20276 
        4.33543         14.3456         1.19179 
        4.35116         14.2143         1.18092 
        4.36688         14.0984          1.1702 
        4.38255         13.9703         1.15965 
        4.39825         13.8268         1.14921 
        4.41398         13.7372         1.13887 
         4.4297          13.609         1.12868 
        4.44541         13.4727         1.11861 
        4.46111         13.4048         1.10867 
        4.47683         13.2633         1.09884 
        4.49251         13.1491         1.08915 
        4.50819         13.0489         1.07959 
         4.5239         12.9375         1.07012 
        4.53962         12.8342         1.06075 
        4.55535         12.7407          1.0515 
        4.57106         12.6235         1.04236 
        4.58678         12.5245         1.03334 
         4.6025         12.4274         1.02441 
        4.61821         12.3168          1.0156 
        4.63391         12.2009          1.0069 
         4.6496         12.1157        0.998301 
        4.66532          11.979        0.989793 
        4.68103         11.9223        0.981387 
        4.69673         11.8176        0.973088 
        4.71241         11.7378        0.964892 
        4.72811         11.6353        0.956777 
        4.74384         11.5241        0.948745 
        4.75955         11.4222        0.940818 
        4.77525         11.3518        0.932986 
        4.79096         11.2456        0.925233 
        4.80669         11.1879        0.917564 
         4.8224         11.0793        0.909991 
        4.83809         10.9928        0.902512 
        4.85379         10.9271        0.895112 
         4.8695         10.7981        0.887789 
        4.88521          10.746         0.88055 
        4.90093         10.6605        0.873392 
        4.91663         10.5647        0.866319 
        4.93234         10.4858        0.859317 
        4.94807         10.4046        0.852388 
        4.96377         10.3354        0.845549 
        4.97943         10.2478        0.838798 
        4.99514         10.1297        0.832104 
        5.01086         10.0837        0.825478 
        5.02654          9.9937        0.818941 
        5.04227         9.91492        0.812455 
          5.058         9.85436        0.806037 
        5.07371         9.77033          0.7997 
        5.08942         9.69194        0.793431 
        5.10513         9.62595        0.787228 
        5.12084         9.54763        0.781089 
        5.13656         9.48965        0.775016 
        5.15225         9.40114        0.769018 
        5.16796         9.33025        0.763073 
        5.18369         9.25947        0.757186 
         5.1994         9.19922        0.751372 
        5.21509         9.10362        0.745624 
        5.23079         9.03682         0.73993 
        5.24649         8.97933        0.734299 
        5.26217         8.89659        0.728731 
        5.27788         8.86564        0.723213 
        5.29359         8.77124        0.717751 
        5.30933         8.71899        0.712337 
        5.32504         8.66857        0.706988 
        5.34073         8.59143          0.7017 
        5.35646           8.527        0.696456 
        5.37218         8.46315        0.691264 
        5.38789         8.39317        0.686133 
        5.40357         8.33152         0.68106 
        5.41929         8.28988        0.676027 
        5.43502         8.21774        0.671045 
         5.4507         8.14321        0.666124 
        5.46639         8.08309        0.661252 
        5.48212         8.02615        0.656418 
        5.49786         7.97518        0.651626 
        5.51353         7.91907        0.646906 
        5.52921         7.86797        0.642227 
        5.54495         7.80316        0.637581 
        5.56066         7.75479        0.632986 
        5.57637         7.69275        0.628437 
        5.59207         7.64224        0.623937 
        5.60778         7.57136        0.619479 
        5.62346         7.53461        0.615071 
        5.63916         7.47937        0.610701 
        5.65487         7.42223        0.606372 
         5.6706         7.35683         0.60208 
        5.68633         7.31523        0.597827 
        5.70203         7.25293        0.593624 
        5.71773         7.21642        0.589463 
        5.73344          7.1716        0.585339 
        5.74916         7.13015        0.581251 
        5.76486         7.07033        0.577207 
        5.78054         7.00766        0.573208 
        5.79626         6.96679        0.569236 
          5.812         6.91483        0.565297 
         5.8277         6.86902        0.561407 
        5.84339         6.83412        0.557554 
        5.85911         6.77206        0.553729 
        5.87484         6.72591        0.549941 
        5.89053         6.67189        0.546196 
        5.90623         6.62867        0.542484 
        5.92195         6.60219          0.5388 
        5.93767         6.54776        0.535152 
        5.95336         6.49439        0.531544 
        5.96905         6.46353        0.527971 
        5.98476         6.42957        0.524425 
        6.00048         6.36523        0.520911 
        6.01617         6.31953        0.517434 
        6.03185         6.28838        0.513993 
        6.04756         6.22773        0.510574 
        6.06331         6.19971         0.50718 
        6.07903         6.16527        0.503823 
        6.09473         6.11534          0.5005 
        6.11044         6.09024        0.497204 
        6.12616         6.03697        0.493938 
        6.14186         6.00549        0.490705 
        6.15755         5.95945        0.487501 
        6.17326         5.91288        0.484322 
        6.18898         5.88172        0.481171 
        6.20467         5.84074        0.478054 
        6.22036         5.79253        0.474964 
         6.2361         5.76258        0.471893 
         6.2518         5.71265        0.468854 
        6.26748         5.68977        0.465849 
        6.28319         5.64213        0.462862 
        6.29893         5.60969        0.459898 
        6.31463         5.58088        0.456965 
        6.33033         5.54465        0.454059 
        6.34604         5.51144        0.451176 
        6.36177         5.46803        0.448316 
        6.37747         5.44036        0.445485 
