# k  (h/Mpc)    Pcb(k)  (Mpc/h)^3    Pcb_linear(k) (Mpc/h)^3   ShotnoiseSubtracted = true
      0.0200456         6928.55         7041.02 
      0.0350414         5389.02         5520.87 
      0.0492313         4333.85         4374.23 
      0.0637834          3610.3         3556.95 
      0.0800726         2745.49         2686.93 
       0.096163         2065.66         2113.44 
       0.111083         1722.55         1789.03 
       0.126058         1505.57         1487.19 
       0.142273         1257.05         1210.18 
       0.158546         1091.14         1030.93 
        0.17375          903.05         896.947 
       0.188953         834.141         771.101 
       0.204907         772.606         667.499 
       0.220756         666.194         589.963 
        0.23588         589.579         524.015 
         0.2514         514.223         464.319 
       0.267535         489.019         414.093 
       0.283568         446.592         372.099 
       0.299022         414.959         336.016 
       0.314451         382.893         304.651 
       0.330372         354.023         277.002 
       0.346141         320.723         252.871 
       0.361624         305.745         231.761 
       0.377134         287.243         213.092 
       0.392932         266.312         196.268 
       0.408854         255.429           181.1 
       0.424564         245.196         167.664 
       0.440253         232.158         155.638 
       0.455999         219.117         144.764 
       0.471626         202.062         134.985 
        0.48727         197.345         126.097 
       0.502856         189.441         118.043 
       0.518488         185.455         110.672 
       0.534347         176.268         103.834 
       0.550082         164.033         97.6214 
       0.565732         159.361         91.9483 
       0.581496         152.359         86.6902 
       0.597222         147.885         81.8545 
       0.612804         141.236         77.4285 
       0.628434         137.917         73.3191 
       0.644267         133.228         69.4613 
       0.660051         130.618         65.8928 
       0.675724         126.879         62.5981 
       0.691403         123.028         59.5283 
       0.707174         118.187         56.6489 
       0.722871          116.41         53.9729 
        0.73838         114.054         51.4993 
       0.754018         108.896         49.1628 
       0.769845          106.87         46.9462 
        0.78569         104.416         44.8646 
       0.801365         101.295         42.9299 
       0.817031         97.8281         41.1109 
       0.832809         96.5629         39.3859 
       0.848511         93.3154         37.7679 
       0.864097         90.6829         36.2522 
       0.879701          89.815         34.8185 
       0.895507         87.8167         33.4456 
       0.911279         86.4922         32.1499 
        0.92691         84.1428         30.9338 
       0.942635         81.8871         29.7741 
       0.958396         81.4881         28.6717 
       0.974128         79.3736         27.6274 
       0.989692         77.4012         26.6456 
        1.00528         76.0872         25.7104 
        1.02113         74.4432         24.8056 
        1.03692         72.5644         23.9479 
        1.05264         72.0626         23.1349 
        1.06832         70.3775         22.3611 
        1.08405         69.4675         21.6208 
        1.09979         68.6367         20.9138 
        1.11537         66.1342         20.2455 
        1.13105         66.4687         19.6026 
        1.14679         65.1444         18.9852 
        1.16256         63.9962         18.3933 
        1.17828         62.2819         17.8287 
        1.19395         61.8684         17.2898 
         1.2097         60.3864         16.7705 
        1.22537         60.2837         16.2752 
          1.241          58.696         15.8014 
        1.25666         57.6215         15.3453 
        1.27241         57.2014         14.9052 
        1.28819         55.9022         14.4817 
        1.30392         54.9595         14.0759 
        1.31957         54.5883         13.6875 
        1.33529          53.814         13.3124 
        1.35108         53.2916         12.9499 
        1.36674         52.4099         12.6036 
         1.3824         51.2216         12.2702 
        1.39811         50.9381         11.9479 
        1.41389         50.0826         11.6359 
        1.42964         49.3558         11.3357 
        1.44531         48.7567         11.0475 
        1.46101         47.6448         10.7688 
        1.47667         47.6069         10.5005 
        1.49229         47.0515         10.2421 
        1.50793         46.1296         9.99218 
        1.52367         45.5834         9.74899 
        1.53953         45.2006         9.51229 
        1.55526         44.4807         9.28535 
        1.57092          44.089         9.06678 
        1.58662         43.5141         8.85474 
        1.60235         42.9942         8.64909 
        1.61809         42.2724         8.44989 
        1.63369         41.6338         8.25874 
        1.64941         41.0717         8.07216 
        1.66519         40.5906         7.89068 
        1.68085         40.2466         7.71609 
        1.69652         39.7241         7.54673 
        1.71228         39.4824         7.38152 
        1.72806         38.8406         7.22113 
        1.74368         38.3061         7.06712 
        1.75933         37.9006         6.91731 
        1.77505         37.5802         6.77115 
        1.79081         36.9553         6.62896 
         1.8065         36.5712         6.49147 
        1.82218          36.208         6.35801 
        1.83797          35.735          6.2274 
        1.85367         35.2364         6.10118 
        1.86928         35.0019         5.97923 
        1.88497         34.4671         5.85995 
        1.90073         34.3042         5.74349 
        1.91647         33.8124         5.63031 
        1.93218          33.411         5.52042 
        1.94787         33.0758         5.41363 
        1.96363         32.7597         5.30925 
        1.97935          32.402         5.20784 
        1.99499         31.9562         5.10965 
        2.01064         31.6985         5.01386 
         2.0264         31.2175         4.91992 
        2.04216         30.8208         4.82845 
        2.05781         30.5826         4.73988 
        2.07353         30.2676         4.65321 
        2.08928         30.1418         4.56853 
        2.10499         29.8049         4.48619 
        2.12065         29.2951         4.40613 
        2.13633         29.1315         4.32795 
        2.15211         28.5889         4.25117 
        2.16785         28.3205         4.17647 
        2.18349         28.2288         4.10403 
        2.19916          27.906         4.03316 
        2.21489          27.447         3.96374 
        2.23063         27.3232          3.8959 
         2.2463         27.1017         3.82996 
        2.26194         26.7538         3.76571 
        2.27765          26.451          3.7026 
        2.29341         26.1417         3.64078 
        2.30914         26.0048          3.5805 
        2.32486         25.6782         3.52162 
        2.34061         25.4484         3.46397 
        2.35635         25.1123         3.40766 
        2.37203         24.9073          3.3528 
        2.38768         24.6736         3.29926 
        2.40339         24.5486          3.2467 
        2.41914         24.2354         3.19516 
        2.43483         23.8908         3.14493 
         2.4505         23.6928         3.09586 
        2.46622         23.4297         3.04766 
        2.48195         23.2283          3.0005 
        2.49759           22.97         2.95458 
        2.51328         22.7822         2.90951 
        2.52906         22.6033         2.86509 
        2.54479         22.2858         2.82176 
        2.56049         22.0501         2.77942 
        2.57618         21.8533         2.73798 
        2.59189         21.7031         2.69733 
        2.60758         21.5086         2.65756 
        2.62325         21.2299         2.61865 
        2.63898         21.1483         2.58038 
        2.65468         20.8849         2.54295 
        2.67044         20.6427         2.50611 
        2.68618         20.4566         2.47009 
        2.70184         20.3167         2.43491 
        2.71755         20.0882         2.40034 
        2.73329         19.9029         2.36638 
        2.74897         19.6025         2.33319 
        2.76462          19.638         2.30071 
        2.78034         19.3602         2.26872 
        2.79607          19.186          2.2373 
        2.81179         19.0489         2.20651 
        2.82749         18.8404         2.17634 
        2.84321         18.7173         2.14669 
        2.85893         18.5065         2.11761 
        2.87462         18.2696         2.08912 
        2.89033         18.1657         2.06113 
        2.90605         18.0415         2.03362 
        2.92176         17.7583         2.00663 
        2.93747         17.6891         1.98015 
        2.95318         17.4686         1.95413 
        2.96891         17.3191         1.92857 
        2.98456         17.1612         1.90359 
        3.00023         17.0584         1.87901 
        3.01596         16.8739         1.85478 
        3.03164         16.7502         1.83106 
        3.04738         16.5247         1.80768 
         3.0631         16.3924         1.78471 
        3.07883         16.2498         1.76215 
        3.09456         16.1143         1.73997 
        3.11026         15.9938         1.71822 
        3.12596         15.7849         1.69684 
        3.14163         15.7389         1.67587 
        3.15734          15.498          1.6552 
        3.17308         15.3799         1.63484 
        3.18879         15.2575         1.61487 
        3.20447         15.1137         1.59527 
         3.2202         14.9685         1.57593 
         3.2359         14.8707         1.55695 
        3.25157         14.7561         1.53832 
        3.26729         14.5834         1.51994 
        3.28304         14.4887         1.50183 
        3.29877         14.3179         1.48403 
        3.31446           14.16         1.46657 
        3.33014         14.0383          1.4494 
        3.34585         13.9201         1.43247 
        3.36158         13.8136          1.4158 
        3.37727         13.6822         1.39944 
        3.39294         13.5888         1.38335 
        3.40867         13.4179         1.36746 
        3.42439         13.3316         1.35183 
        3.44008         13.2474         1.33647 
        3.45578         13.1327         1.32134 
        3.47153         13.0237         1.30641 
        3.48724         12.9147         1.29174 
        3.50292         12.7582         1.27732 
        3.51859         12.6784         1.26314 
        3.53431         12.5913         1.24912 
        3.55007          12.485         1.23529 
        3.56577         12.3753         1.22171 
        3.58146         12.2753         1.20835 
        3.59719         12.1169         1.19516 
        3.61292         12.0509         1.18216 
        3.62859         11.9184         1.16941 
        3.64429         11.8109         1.15683 
        3.66003         11.7339         1.14439 
        3.67578         11.6455         1.13214 
        3.69146         11.5603         1.12011 
        3.70712         11.4166         1.10828 
        3.72284         11.3304         1.09658 
        3.73853         11.2251         1.08506 
        3.75422         11.1762         1.07371 
        3.76993         11.0648         1.06251 
        3.78564         10.9446         1.05147 
        3.80137         10.8703         1.04058 
        3.81707         10.7531         1.02986 
        3.83279         10.6878         1.01928 
        3.84853         10.5828         1.00883 
        3.86424         10.4909        0.998553 
        3.87992          10.413        0.988432 
        3.89561         10.3372         0.97845 
        3.91134           10.29        0.968587 
        3.92704         10.1612         0.95887 
        3.94273         10.0775        0.949297 
        3.95845         10.0117        0.939836 
        3.97418         9.91755        0.930503 
        3.98988         9.84068        0.921309 
        4.00554         9.76189        0.912264 
        4.02125         9.66617        0.903315 
        4.03698         9.59415        0.894472 
        4.05268         9.52546        0.885767 
        4.06839         9.42259        0.877171 
         4.0841         9.39031        0.868693 
        4.09983         9.28476        0.860314 
        4.11555          9.2011         0.85205 
        4.13124         9.14367        0.843916 
        4.14693         9.05449        0.835882 
        4.16266         8.99821        0.827934 
        4.17839         8.91446        0.820094 
        4.19408         8.85602        0.812373 
        4.20977         8.78055        0.804748 
        4.22551         8.72627        0.797203 
        4.24123         8.66153        0.789762 
        4.25691         8.56426        0.782437 
        4.27259         8.50447        0.775201 
        4.28831         8.44305        0.768043 
        4.30404         8.36437        0.760969 
        4.31974         8.30886        0.753999 
        4.33543         8.22355         0.74712 
        4.35116          8.1618        0.740311 
        4.36688         8.11237        0.733588 
        4.38255          8.0391        0.726975 
        4.39825         7.96447        0.720428 
        4.41398         7.93007        0.713949 
         4.4297         7.85666        0.707557 
        4.44541          7.7972        0.701244 
        4.46111          7.7207        0.695013 
        4.47683         7.66985        0.688853 
        4.49251         7.61353         0.68278 
        4.50819          7.5753        0.676782 
         4.5239         7.51661        0.670848 
        4.53962         7.44662        0.664977 
        4.55535         7.37964        0.659173 
        4.57106         7.32207        0.653447 
        4.58678         7.25644        0.647788 
         4.6025         7.21833        0.642195 
        4.61821         7.16143        0.636668 
        4.63391         7.11431        0.631214 
         4.6496         7.04197        0.625826 
        4.66532         7.01042        0.620492 
        4.68103         6.91955        0.615223 
        4.69673         6.88261         0.61002 
        4.71241         6.85562        0.604882 
        4.72811         6.77269        0.599795 
        4.74384         6.73004         0.59476 
        4.75955          6.6766         0.58979 
        4.77525         6.63681         0.58488 
        4.79096         6.58137         0.58002 
        4.80669         6.54182        0.575213 
         4.8224         6.49355        0.570465 
        4.83809         6.41958        0.565776 
        4.85379         6.37298        0.561137 
         4.8695         6.33511        0.556546 
        4.88521         6.28472        0.552009 
        4.90093         6.24273        0.547521 
        4.91663         6.19953        0.543088 
        4.93234         6.13198        0.538698 
        4.94807         6.10333        0.534354 
        4.96377         6.05996        0.530067 
        4.97943         6.01469        0.525835 
        4.99514         5.97121        0.521638 
        5.01086         5.91974        0.517485 
        5.02654         5.87369        0.513386 
        5.04227         5.84334        0.509321 
          5.058         5.81024        0.505297 
        5.07371         5.76149        0.501325 
        5.08942         5.70692        0.497395 
        5.10513         5.66784        0.493506 
        5.12084         5.64453        0.489657 
        5.13656         5.59941         0.48585 
        5.15225         5.55397         0.48209 
        5.16796         5.51005        0.478364 
        5.18369         5.48264        0.474673 
         5.1994         5.44198        0.471028 
        5.21509         5.40198        0.467425 
        5.23079         5.35632        0.463855 
        5.24649         5.32297        0.460325 
        5.26217         5.28658        0.456835 
        5.27788         5.24513        0.453375 
        5.29359          5.2218        0.449951 
        5.30933         5.17851        0.446557 
        5.32504         5.14591        0.443204 
        5.34073         5.10694        0.439889 
        5.35646          5.0663        0.436602 
        5.37218         5.03901        0.433347 
        5.38789         5.00448         0.43013 
        5.40357         4.95836         0.42695 
        5.41929         4.93847        0.423795 
        5.43502         4.90597        0.420672 
         5.4507         4.86604        0.417587 
        5.46639          4.8249        0.414533 
        5.48212         4.78842        0.411502 
        5.49786         4.76394        0.408498 
        5.51353         4.72528        0.405539 
        5.52921         4.70791        0.402606 
        5.54495          4.6661        0.399694 
        5.56066         4.63553        0.396813 
        5.57637         4.60339        0.393962 
        5.59207         4.57191         0.39114 
        5.60778         4.54206        0.388346 
        5.62346         4.51026        0.385582 
        5.63916         4.48391        0.382843 
        5.65487         4.44521        0.380129 
         5.6706         4.41907        0.377438 
        5.68633         4.39795        0.374772 
        5.70203         4.36185        0.372138 
        5.71773         4.34525        0.369529 
        5.73344         4.31293        0.366944 
        5.74916         4.28315        0.364381 
        5.76486         4.25175        0.361846 
        5.78054         4.21866        0.359339 
        5.79626         4.19527        0.356849 
          5.812          4.1667        0.354379 
         5.8277         4.14997        0.351941 
        5.84339         4.12002        0.349525 
        5.85911         4.09078        0.347128 
        5.87484         4.06399        0.344753 
        5.89053         4.04095        0.342405 
        5.90623         4.01546        0.340078 
        5.92195         3.98039        0.337769 
        5.93767         3.96449        0.335482 
        5.95336         3.93489         0.33322 
        5.96905         3.90202         0.33098 
        5.98476         3.88318        0.328757 
        6.00048         3.85811        0.326554 
        6.01617         3.83793        0.324374 
        6.03185          3.8086        0.322217 
        6.04756          3.7993        0.320074 
        6.06331          3.7601        0.317946 
        6.07903         3.73932        0.315842 
        6.09473         3.71834        0.313759 
        6.11044         3.69042        0.311693 
        6.12616         3.68297        0.309645 
        6.14186         3.65151        0.307618 
        6.15755         3.63273         0.30561 
        6.17326         3.61105        0.303617 
        6.18898         3.58211        0.301642 
        6.20467         3.55643        0.299687 
        6.22036         3.54981         0.29775 
         6.2361         3.51892        0.295825 
         6.2518         3.49862         0.29392 
        6.26748         3.47923        0.292036 
        6.28319         3.45839        0.290164 
        6.29893         3.42952        0.288306 
        6.31463         3.41302        0.286467 
        6.33033         3.39101        0.284646 
        6.34604         3.36838        0.282838 
        6.36177         3.35077        0.281045 
        6.37747         3.33178         0.27927 
