# k  (h/Mpc)    Pcb(k)  (Mpc/h)^3    Pcb_linear(k) (Mpc/h)^3   ShotnoiseSubtracted = true
      0.0200456         18396.5           18673 
      0.0350414         15017.5         14641.6 
      0.0492313         11292.8         11600.6 
      0.0637834         8924.82         9433.16 
      0.0800726         6743.78         7125.84 
       0.096163         5713.32         5604.93 
       0.111083         4875.99         4744.56 
       0.126058         3877.37         3944.08 
       0.142273         3316.64         3209.45 
       0.158546         2831.34         2734.08 
        0.17375         2557.71         2378.74 
       0.188953         2372.96         2044.99 
       0.204907          2037.1         1770.23 
       0.220756         1852.29          1564.6 
        0.23588         1666.14         1389.71 
         0.2514         1505.59         1231.39 
       0.267535         1451.25         1098.19 
       0.283568         1294.39          986.82 
       0.299022          1239.8         891.126 
       0.314451         1284.85         807.947 
       0.330372         1132.11         734.621 
       0.346141         1042.88         670.623 
       0.361624         1002.08         614.639 
       0.377134         958.058         565.127 
       0.392932         920.852         520.511 
       0.408854         878.672         480.283 
       0.424564          860.79         444.651 
       0.440253         796.959         412.758 
       0.455999         763.434          383.92 
       0.471626         775.564         357.984 
        0.48727         733.889         334.414 
       0.502856         697.422         313.054 
       0.518488         683.957         293.506 
       0.534347         650.459         275.371 
       0.550082         623.009         258.896 
       0.565732         615.712          243.85 
       0.581496         602.109         229.906 
       0.597222          587.46         217.081 
       0.612804         576.079         205.343 
       0.628434         551.474         194.445 
       0.644267         534.801         184.214 
       0.660051         528.089          174.75 
       0.675724         517.723         166.012 
       0.691403         504.156         157.871 
       0.707174         487.175         150.235 
       0.722871         478.301         143.138 
        0.73838         473.069         136.578 
       0.754018          458.53         130.382 
       0.769845         452.961         124.503 
        0.78569         443.483         118.983 
       0.801365          429.26         113.852 
       0.817031         424.846         109.028 
       0.832809         419.633         104.453 
       0.848511         410.229         100.162 
       0.864097         401.681         96.1422 
       0.879701         397.876         92.3399 
       0.895507         383.347          88.699 
       0.911279         377.912         85.2626 
        0.92691         373.507         82.0375 
       0.942635         370.645         78.9621 
       0.958396         357.478         76.0385 
       0.974128         353.312         73.2689 
       0.989692         340.823         70.6653 
        1.00528         340.067         68.1849 
        1.02113         333.089         65.7854 
        1.03692         327.631         63.5108 
        1.05264         321.555         61.3547 
        1.06832         317.774         59.3026 
        1.08405         313.302         57.3393 
        1.09979          308.04         55.4642 
        1.11537          299.29         53.6919 
        1.13105         296.506         51.9868 
        1.14679         291.611         50.3494 
        1.16256         288.606         48.7798 
        1.17828         284.053         47.2824 
        1.19395         276.815         45.8532 
         1.2097         276.267         44.4761 
        1.22537         270.379         43.1624 
          1.241         265.847         41.9059 
        1.25666         262.492         40.6964 
        1.27241         257.992         39.5292 
        1.28819         253.707          38.406 
        1.30392         251.677         37.3298 
        1.31957         245.049         36.2998 
        1.33529         242.412          35.305 
        1.35108         239.826         34.3437 
        1.36674         234.592         33.4251 
         1.3824         232.552         32.5411 
        1.39811         229.712         31.6862 
        1.41389         223.256         30.8589 
        1.42964         221.149         30.0626 
        1.44531         217.995         29.2984 
        1.46101          214.92         28.5592 
        1.47667         211.649         27.8477 
        1.49229          208.75         27.1625 
        1.50793         205.967         26.4996 
        1.52367         203.107         25.8547 
        1.53953         198.145         25.2269 
        1.55526         197.914         24.6251 
        1.57092         195.566         24.0454 
        1.58662         190.929         23.4831 
        1.60235         189.132         22.9377 
        1.61809         186.104         22.4094 
        1.63369           182.8         21.9025 
        1.64941         180.892         21.4077 
        1.66519         178.058         20.9264 
        1.68085         175.067         20.4634 
        1.69652         173.436         20.0142 
        1.71228         170.764         19.5761 
        1.72806         168.016         19.1507 
        1.74368         166.769         18.7423 
        1.75933         164.996          18.345 
        1.77505         162.178         17.9573 
        1.79081         158.918         17.5803 
         1.8065         157.162         17.2156 
        1.82218         154.196         16.8617 
        1.83797         153.325         16.5153 
        1.85367         151.217         16.1806 
        1.86928         148.319         15.8571 
        1.88497         147.308         15.5408 
        1.90073         145.503          15.232 
        1.91647         142.742         14.9318 
        1.93218         141.343         14.6404 
        1.94787         138.902         14.3572 
        1.96363         138.523         14.0803 
        1.97935         136.152         13.8114 
        1.99499         134.694          13.551 
        2.01064         131.763         13.2969 
         2.0264         130.439         13.0478 
        2.04216         128.987         12.8052 
        2.05781         126.677         12.5703 
        2.07353         125.318         12.3405 
        2.08928         123.874         12.1159 
        2.10499         122.333         11.8975 
        2.12065         121.156         11.6852 
        2.13633         119.489         11.4779 
        2.15211         117.596         11.2743 
        2.16785         115.853         11.0761 
        2.18349         114.468          10.884 
        2.19916         113.467         10.6961 
        2.21489          112.02          10.512 
        2.23063         109.978         10.3321 
         2.2463         109.115         10.1572 
        2.26194         107.786         9.98679 
        2.27765         106.145         9.81944 
        2.29341         105.166         9.65549 
        2.30914         104.244         9.49563 
        2.32486         101.941         9.33947 
        2.34061         101.405         9.18658 
        2.35635         100.158         9.03725 
        2.37203         98.5049         8.89175 
        2.38768         97.6329         8.74977 
        2.40339         96.4525         8.61037 
        2.41914         95.0155         8.47369 
        2.43483         94.1018         8.34046 
         2.4505         93.0636         8.21033 
        2.46622         91.6667         8.08252 
        2.48195         90.7402         7.95743 
        2.49759         89.4344         7.83566 
        2.51328         88.8616         7.71612 
        2.52906          87.231         7.59832 
        2.54479          86.313         7.48342 
        2.56049         85.1295         7.37113 
        2.57618         83.9074         7.26123 
        2.59189         83.7093         7.15341 
        2.60758         82.0442         7.04796 
        2.62325         81.7105         6.94476 
        2.63898         80.5986         6.84326 
        2.65468         79.4683         6.74401 
        2.67044          78.301         6.64631 
        2.68618         77.7576         6.55076 
        2.70184         76.5589         6.45748 
        2.71755         75.7732         6.36579 
        2.73329         74.6686         6.27573 
        2.74897         74.2583         6.18771 
        2.76462         73.1752         6.10158 
        2.78034          72.146         6.01673 
        2.79607         71.4718          5.9334 
        2.81179          70.763         5.85175 
        2.82749         69.9246         5.77173 
        2.84321         69.1521         5.69311 
        2.85893         68.4523         5.61599 
        2.87462         67.5751         5.54042 
        2.89033         66.8918         5.46618 
        2.90605          66.448         5.39324 
        2.92176         65.3022         5.32166 
        2.93747         64.8057         5.25142 
        2.95318         63.9739         5.18243 
        2.96891         63.3287         5.11465 
        2.98456         62.7193         5.04839 
        3.00023            61.8          4.9832 
        3.01596         61.4426         4.91896 
        3.03164         60.6255         4.85604 
        3.04738         60.0511         4.79403 
         3.0631         59.2418         4.73313 
        3.07883         58.6712         4.67328 
        3.09456         58.0582         4.61448 
        3.11026         57.3142         4.55678 
        3.12596         56.8226         4.50007 
        3.14163         56.2353         4.44446 
        3.15734         55.5673         4.38966 
        3.17308         55.0253         4.33565 
        3.18879         54.2027          4.2827 
        3.20447         53.9192         4.23071 
         3.2202         53.2503         4.17943 
         3.2359         52.7173         4.12908 
        3.25157         52.1858         4.07968 
        3.26729         51.5588         4.03094 
        3.28304         51.0225         3.98291 
        3.29877         50.4296         3.93571 
        3.31446         50.0749         3.88939 
        3.33014         49.5696         3.84385 
        3.34585         49.0158         3.79898 
        3.36158         48.5044         3.75475 
        3.37727         48.0855         3.71136 
        3.39294         47.6628          3.6687 
        3.40867          47.133         3.62656 
        3.42439         46.5622          3.5851 
        3.44008         46.0968         3.54437 
        3.45578         45.7764         3.50424 
        3.47153         45.2391         3.46465 
        3.48724         44.7375         3.42574 
        3.50292         44.2208         3.38751 
        3.51859          43.902         3.34989 
        3.53431         43.1784         3.31272 
        3.55007         42.9256         3.27603 
        3.56577         42.4511         3.24003 
        3.58146         41.9685         3.20459 
        3.59719         41.5389          3.1696 
        3.61292         41.1624         3.13515 
        3.62859         40.8972         3.10133 
        3.64429         40.5483         3.06795 
        3.66003         40.1116         3.03496 
        3.67578         39.7158         3.00247 
        3.69146         39.3258         2.97057 
        3.70712         39.0209          2.9392 
        3.72284         38.6605         2.90816 
        3.73853         38.2012         2.87762 
        3.75422         37.8046         2.84752 
        3.76993         37.5049         2.81781 
        3.78564         37.1523         2.78855 
        3.80137         36.8231         2.75965 
        3.81707         36.3488         2.73122 
        3.83279         35.9968         2.70316 
        3.84853         35.6649         2.67546 
        3.86424         35.3978          2.6482 
        3.87992         35.1376         2.62136 
        3.89561         34.8015         2.59489 
        3.91134         34.5283         2.56873 
        3.92704         34.0753         2.54296 
        3.94273          33.857         2.51757 
        3.95845         33.5169         2.49248 
        3.97418         33.1032         2.46773 
        3.98988         32.8676         2.44335 
        4.00554         32.5504         2.41936 
        4.02125         32.2761         2.39562 
        4.03698          32.041         2.37217 
        4.05268         31.7713         2.34909 
        4.06839         31.3454         2.32629 
         4.0841         31.1339         2.30381 
        4.09983         30.8772         2.28159 
        4.11555         30.5904         2.25967 
        4.13124         30.3173          2.2381 
        4.14693         30.0259         2.21679 
        4.16266         29.6911         2.19571 
        4.17839         29.4689         2.17492 
        4.19408         29.2382         2.15444 
        4.20977         28.9791         2.13422 
        4.22551         28.7696         2.11421 
        4.24123         28.4377         2.09448 
        4.25691         28.2143         2.07505 
        4.27259         27.9935         2.05586 
        4.28831         27.7191         2.03688 
        4.30404         27.4432         2.01812 
        4.31974          27.229         1.99963 
        4.33543         26.9955         1.98139 
        4.35116         26.7513         1.96333 
        4.36688         26.5396          1.9455 
        4.38255         26.3465         1.92796 
        4.39825         26.0108          1.9106 
        4.41398         25.9109         1.89342 
         4.4297         25.6522         1.87647 
        4.44541         25.4964         1.85973 
        4.46111         25.2426          1.8432 
        4.47683         24.9941         1.82686 
        4.49251         24.8049         1.81076 
        4.50819         24.5657         1.79485 
         4.5239         24.3109         1.77911 
        4.53962         24.1994         1.76354 
        4.55535         23.9188         1.74815 
        4.57106         23.7713         1.73297 
        4.58678         23.5841         1.71796 
         4.6025         23.3827         1.70312 
        4.61821         23.1679         1.68847 
        4.63391         22.9637           1.674 
         4.6496         22.8009         1.65971 
        4.66532         22.6005         1.64557 
        4.68103         22.3852         1.63159 
        4.69673         22.1936         1.61779 
        4.71241         22.0181         1.60417 
        4.72811         21.8588         1.59068 
        4.74384         21.7174         1.57733 
        4.75955         21.5252         1.56415 
        4.77525         21.3593         1.55112 
        4.79096         21.1305         1.53823 
        4.80669         20.9975         1.52549 
         4.8224         20.8131         1.51289 
        4.83809         20.6405         1.50046 
        4.85379         20.4536         1.48816 
         4.8695         20.2974         1.47598 
        4.88521         20.1194         1.46395 
        4.90093         19.9908         1.45205 
        4.91663         19.8394         1.44029 
        4.93234         19.6367         1.42865 
        4.94807         19.5474         1.41713 
        4.96377         19.3354         1.40576 
        4.97943          19.183         1.39453 
        4.99514         19.0364          1.3834 
        5.01086          18.908         1.37239 
        5.02654         18.7604         1.36152 
        5.04227         18.6184         1.35074 
          5.058         18.4444         1.34007 
        5.07371         18.3122         1.32953 
        5.08942         18.1659         1.31911 
        5.10513         18.0476          1.3088 
        5.12084         17.8681         1.29859 
        5.13656         17.7333         1.28849 
        5.15225         17.5763         1.27852 
        5.16796          17.488         1.26864 
        5.18369         17.3187         1.25885 
         5.1994         17.1973         1.24918 
        5.21509         17.0682         1.23963 
        5.23079         16.9747         1.23016 
        5.24649          16.858          1.2208 
        5.26217         16.6839         1.21154 
        5.27788         16.5632         1.20237 
        5.29359         16.4646         1.19329 
        5.30933         16.3105         1.18429 
        5.32504         16.1878         1.17539 
        5.34073         16.0585          1.1666 
        5.35646         15.9269         1.15788 
        5.37218         15.8255         1.14925 
        5.38789         15.6941         1.14072 
        5.40357         15.6158         1.13229 
        5.41929         15.4666         1.12392 
        5.43502         15.3513         1.11564 
         5.4507         15.2419         1.10746 
        5.46639         15.1214         1.09936 
        5.48212         15.0309         1.09132 
        5.49786         14.9184         1.08335 
        5.51353         14.8093          1.0755 
        5.52921         14.6965         1.06773 
        5.54495         14.5979            1.06 
        5.56066         14.4622         1.05236 
        5.57637         14.3746          1.0448 
        5.59207         14.2475         1.03732 
        5.60778         14.1707         1.02991 
        5.62346         14.0711         1.02258 
        5.63916         13.9439         1.01531 
        5.65487         13.8648         1.00812 
         5.6706         13.7526         1.00098 
        5.68633         13.6508         0.99391 
        5.70203          13.553        0.986923 
        5.71773         13.4457        0.980004 
        5.73344         13.3638        0.973148 
        5.74916         13.2518        0.966351 
        5.76486          13.176        0.959628 
        5.78054         13.0644         0.95298 
        5.79626         12.9946        0.946376 
          5.812         12.8713        0.939828 
         5.8277         12.7983         0.93336 
        5.84339         12.7062        0.926954 
        5.85911           12.61        0.920595 
        5.87484         12.5525        0.914298 
        5.89053         12.4562        0.908071 
        5.90623         12.3359          0.9019 
        5.92195          12.247        0.895775 
        5.93767         12.1725        0.889711 
        5.95336         12.1088        0.883712 
        5.96905         12.0059        0.877772 
        5.98476         11.9513        0.871877 
        6.00048         11.8588        0.866034 
        6.01617         11.7495        0.860253 
        6.03185         11.7057        0.854532 
        6.04756          11.607        0.848849 
        6.06331         11.5092        0.843205 
        6.07903         11.4384        0.837625 
        6.09473         11.3655          0.8321 
        6.11044         11.2612         0.82662 
        6.12616         11.2046        0.821191 
        6.14186         11.1171        0.815815 
        6.15755         11.0645        0.810488 
        6.17326         10.9677        0.805204 
        6.18898         10.8777        0.799965 
        6.20467         10.8141        0.794782 
        6.22036         10.7462        0.789645 
         6.2361         10.6779         0.78454 
         6.2518         10.6278        0.779488 
        6.26748         10.5285        0.774491 
        6.28319          10.485        0.769525 
        6.29893         10.4089        0.764598 
        6.31463           10.32        0.759722 
        6.33033         10.2427        0.754891 
        6.34604          10.185        0.750098 
        6.36177         10.1151        0.745342 
        6.37747         10.0618        0.740636 
