# k  (h/Mpc)    Pcb(k)  (Mpc/h)^3    Pcb_linear(k) (Mpc/h)^3   ShotnoiseSubtracted = true
      0.0200456         6958.75         7041.02 
      0.0350414         5630.44         5520.87 
      0.0492313         4334.44         4374.23 
      0.0637834         3449.57         3556.95 
      0.0800726         2613.35         2686.93 
       0.096163         2156.99         2113.44 
       0.111083         1842.55         1789.03 
       0.126058         1474.57         1487.19 
       0.142273         1224.93         1210.18 
       0.158546         1057.08         1030.93 
        0.17375         939.042         896.947 
       0.188953         833.354         771.101 
       0.204907         701.943         667.499 
       0.220756         640.416         589.963 
        0.23588         572.722         524.015 
         0.2514         509.814         464.319 
       0.267535         486.426         414.093 
       0.283568          427.26         372.099 
       0.299022         405.203         336.016 
       0.314451         398.616         304.651 
       0.330372         344.475         277.002 
       0.346141         319.931         252.871 
       0.361624         303.438         231.761 
       0.377134         279.962         213.092 
       0.392932         272.888         196.268 
       0.408854         257.583           181.1 
       0.424564         247.114         167.664 
       0.440253         223.368         155.638 
       0.455999         211.688         144.764 
       0.471626         207.193         134.985 
        0.48727         199.204         126.097 
       0.502856         182.225         118.043 
       0.518488         180.423         110.672 
       0.534347         168.795         103.834 
       0.550082         164.924         97.6214 
       0.565732         161.981         91.9483 
       0.581496         149.977         86.6902 
       0.597222         146.789         81.8545 
       0.612804          142.32         77.4285 
       0.628434         137.945         73.3191 
       0.644267          131.16         69.4613 
       0.660051         127.082         65.8928 
       0.675724           125.7         62.5981 
       0.691403         122.319         59.5283 
       0.707174          118.38         56.6489 
       0.722871         116.159         53.9729 
        0.73838         113.411         51.4993 
       0.754018         106.579         49.1628 
       0.769845         105.961         46.9462 
        0.78569         102.933         44.8646 
       0.801365         100.085         42.9299 
       0.817031          96.733         41.1109 
       0.832809         94.9826         39.3859 
       0.848511         92.8209         37.7679 
       0.864097         91.1955         36.2522 
       0.879701         89.5683         34.8185 
       0.895507         86.1336         33.4456 
       0.911279         85.1003         32.1499 
        0.92691         82.3903         30.9338 
       0.942635         80.8594         29.7741 
       0.958396         80.3508         28.6717 
       0.974128         78.4917         27.6274 
       0.989692         76.7282         26.6456 
        1.00528         75.2548         25.7104 
        1.02113          73.625         24.8056 
        1.03692         73.3116         23.9479 
        1.05264         71.8466         23.1349 
        1.06832          69.631         22.3611 
        1.08405         68.8586         21.6208 
        1.09979          68.386         20.9138 
        1.11537         66.4054         20.2455 
        1.13105         65.0398         19.6026 
        1.14679         64.2314         18.9852 
        1.16256         63.1279         18.3933 
        1.17828         62.4274         17.8287 
        1.19395         60.7936         17.2898 
         1.2097          60.922         16.7705 
        1.22537         59.4736         16.2752 
          1.241          58.716         15.8014 
        1.25666         57.2884         15.3453 
        1.27241         57.0855         14.9052 
        1.28819         56.0007         14.4817 
        1.30392         55.2325         14.0759 
        1.31957         54.7984         13.6875 
        1.33529         53.8801         13.3124 
        1.35108         52.9293         12.9499 
        1.36674         52.3356         12.6036 
         1.3824         51.4753         12.2702 
        1.39811         50.6098         11.9479 
        1.41389         49.8753         11.6359 
        1.42964         49.4765         11.3357 
        1.44531          48.427         11.0475 
        1.46101         48.1622         10.7688 
        1.47667         47.4895         10.5005 
        1.49229         46.7829         10.2421 
        1.50793         46.2686         9.99218 
        1.52367         45.6491         9.74899 
        1.53953          45.181         9.51229 
        1.55526         44.5335         9.28535 
        1.57092         43.9291         9.06678 
        1.58662         43.3389         8.85474 
        1.60235         42.8358         8.64909 
        1.61809         42.2098         8.44989 
        1.63369         41.7448         8.25874 
        1.64941         41.1965         8.07216 
        1.66519         40.5191         7.89068 
        1.68085         40.1704         7.71609 
        1.69652         39.5238         7.54673 
        1.71228         39.3273         7.38152 
        1.72806          38.572         7.22113 
        1.74368         38.2404         7.06712 
        1.75933         37.8704         6.91731 
        1.77505         37.6392         6.77115 
        1.79081         37.0241         6.62896 
         1.8065          36.357         6.49147 
        1.82218         35.9492         6.35801 
        1.83797         35.6892          6.2274 
        1.85367         35.1385         6.10118 
        1.86928         35.1625         5.97923 
        1.88497         34.3274         5.85995 
        1.90073          34.024         5.74349 
        1.91647         33.8335         5.63031 
        1.93218         33.7163         5.52042 
        1.94787         33.2117         5.41363 
        1.96363         32.5811         5.30925 
        1.97935         32.3096         5.20784 
        1.99499         32.0883         5.10965 
        2.01064         31.6187         5.01386 
         2.0264         31.2304         4.91992 
        2.04216          31.027         4.82845 
        2.05781          30.645         4.73988 
        2.07353         30.3216         4.65321 
        2.08928         29.9938         4.56853 
        2.10499         29.7613         4.48619 
        2.12065         29.3808         4.40613 
        2.13633         29.1298         4.32795 
        2.15211         28.6241         4.25117 
        2.16785         28.4212         4.17647 
        2.18349         28.0967         4.10403 
        2.19916         27.8221         4.03316 
        2.21489         27.5379         3.96374 
        2.23063         27.3987          3.8959 
         2.2463         27.0465         3.82996 
        2.26194         26.7525         3.76571 
        2.27765         26.4087          3.7026 
        2.29341         26.1487         3.64078 
        2.30914         25.8973          3.5805 
        2.32486         25.6233         3.52162 
        2.34061         25.4295         3.46397 
        2.35635          25.072         3.40766 
        2.37203         24.9011          3.3528 
        2.38768         24.7163         3.29926 
        2.40339          24.516          3.2467 
        2.41914         24.1748         3.19516 
        2.43483          24.061         3.14493 
         2.4505         23.6049         3.09586 
        2.46622         23.4105         3.04766 
        2.48195          23.184          3.0005 
        2.49759         22.8558         2.95458 
        2.51328         22.7738         2.90951 
        2.52906         22.5953         2.86509 
        2.54479         22.3146         2.82176 
        2.56049         22.2173         2.77942 
        2.57618         22.0394         2.73798 
        2.59189         21.5943         2.69733 
        2.60758         21.5132         2.65756 
        2.62325         21.2474         2.61865 
        2.63898          21.065         2.58038 
        2.65468         20.9157         2.54295 
        2.67044         20.6052         2.50611 
        2.68618         20.4596         2.47009 
        2.70184         20.2336         2.43491 
        2.71755         20.0695         2.40034 
        2.73329         19.8465         2.36638 
        2.74897          19.733         2.33319 
        2.76462         19.5407         2.30071 
        2.78034         19.2684         2.26872 
        2.79607         19.1335          2.2373 
        2.81179          18.937         2.20651 
        2.82749         18.7707         2.17634 
        2.84321         18.6505         2.14669 
        2.85893         18.3454         2.11761 
        2.87462          18.263         2.08912 
        2.89033         18.1076         2.06113 
        2.90605         17.9051         2.03362 
        2.92176         17.6681         2.00663 
        2.93747         17.5451         1.98015 
        2.95318         17.4273         1.95413 
        2.96891         17.2001         1.92857 
        2.98456          17.149         1.90359 
        3.00023         16.8759         1.87901 
        3.01596         16.7575         1.85478 
        3.03164         16.5799         1.83106 
        3.04738         16.4328         1.80768 
         3.0631          16.344         1.78471 
        3.07883         16.1952         1.76215 
        3.09456         16.0545         1.73997 
        3.11026         15.9302         1.71822 
        3.12596          15.719         1.69684 
        3.14163         15.5745         1.67587 
        3.15734          15.443          1.6552 
        3.17308         15.3536         1.63484 
        3.18879         15.1151         1.61487 
        3.20447         15.0579         1.59527 
         3.2202         14.9131         1.57593 
         3.2359            14.8         1.55695 
        3.25157         14.6934         1.53832 
        3.26729         14.5115         1.51994 
        3.28304         14.4237         1.50183 
        3.29877         14.3448         1.48403 
        3.31446         14.1588         1.46657 
        3.33014         14.0625          1.4494 
        3.34585         13.8854         1.43247 
        3.36158         13.7833          1.4158 
        3.37727         13.6582         1.39944 
        3.39294         13.5677         1.38335 
        3.40867         13.3969         1.36746 
        3.42439         13.3129         1.35183 
        3.44008         13.2275         1.33647 
        3.45578         13.0487         1.32134 
        3.47153         12.9521         1.30641 
        3.48724         12.8948         1.29174 
        3.50292          12.771         1.27732 
        3.51859         12.6473         1.26314 
        3.53431         12.4962         1.24912 
        3.55007         12.4321         1.23529 
        3.56577          12.325         1.22171 
        3.58146         12.1844         1.20835 
        3.59719         12.0962         1.19516 
        3.61292         12.0101         1.18216 
        3.62859          11.886         1.16941 
        3.64429         11.8032         1.15683 
        3.66003         11.6947         1.14439 
        3.67578         11.5987         1.13214 
        3.69146         11.5251         1.12011 
        3.70712         11.3844         1.10828 
        3.72284          11.334         1.09658 
        3.73853         11.2067         1.08506 
        3.75422         11.1088         1.07371 
        3.76993         11.0017         1.06251 
        3.78564         10.9276         1.05147 
        3.80137          10.832         1.04058 
        3.81707         10.7638         1.02986 
        3.83279         10.6598         1.01928 
        3.84853         10.5716         1.00883 
        3.86424         10.4791        0.998553 
        3.87992         10.4241        0.988432 
        3.89561         10.3234         0.97845 
        3.91134         10.2382        0.968587 
        3.92704         10.1483         0.95887 
        3.94273         10.0667        0.949297 
        3.95845         9.97068        0.939836 
        3.97418         9.88961        0.930503 
        3.98988         9.84797        0.921309 
        4.00554          9.7478        0.912264 
        4.02125         9.66868        0.903315 
        4.03698         9.59128        0.894472 
        4.05268         9.51957        0.885767 
        4.06839         9.42968        0.877171 
         4.0841         9.33242        0.868693 
        4.09983         9.28031        0.860314 
        4.11555         9.17028         0.85205 
        4.13124         9.12148        0.843916 
        4.14693         9.01953        0.835882 
        4.16266         8.97281        0.827934 
        4.17839         8.87963        0.820094 
        4.19408         8.83794        0.812373 
        4.20977         8.73013        0.804748 
        4.22551         8.67627        0.797203 
        4.24123         8.63237        0.789762 
        4.25691         8.55536        0.782437 
        4.27259         8.46897        0.775201 
        4.28831         8.39674        0.768043 
        4.30404         8.37022        0.760969 
        4.31974         8.27321        0.753999 
        4.33543         8.22636         0.74712 
        4.35116         8.12548        0.740311 
        4.36688         8.07309        0.733588 
        4.38255         8.02457        0.726975 
        4.39825         7.93161        0.720428 
        4.41398         7.88736        0.713949 
         4.4297         7.82069        0.707557 
        4.44541         7.77093        0.701244 
        4.46111          7.7065        0.695013 
        4.47683         7.66341        0.688853 
        4.49251         7.58739         0.68278 
        4.50819         7.52131        0.676782 
         4.5239          7.4708        0.670848 
        4.53962          7.4014        0.664977 
        4.55535         7.35144        0.659173 
        4.57106          7.3031        0.653447 
        4.58678         7.24794        0.647788 
         4.6025         7.19278        0.642195 
        4.61821         7.13436        0.636668 
        4.63391         7.08309        0.631214 
         4.6496         7.02872        0.625826 
        4.66532          6.9735        0.620492 
        4.68103         6.91197        0.615223 
        4.69673          6.8518         0.61002 
        4.71241         6.80735        0.604882 
        4.72811          6.7631        0.599795 
        4.74384         6.73744         0.59476 
        4.75955         6.67738         0.58979 
        4.77525         6.62604         0.58488 
        4.79096         6.58858         0.58002 
        4.80669         6.50774        0.575213 
         4.8224         6.48208        0.570465 
        4.83809          6.4236        0.565776 
        4.85379         6.37517        0.561137 
         4.8695         6.33996        0.556546 
        4.88521          6.2854        0.552009 
        4.90093         6.22968        0.547521 
        4.91663          6.1933        0.543088 
        4.93234         6.14714        0.538698 
        4.94807         6.08647        0.534354 
        4.96377         6.05348        0.530067 
        4.97943         5.99582        0.525835 
        4.99514         5.96323        0.521638 
        5.01086         5.93068        0.517485 
        5.02654         5.87784        0.513386 
        5.04227         5.84251        0.509321 
          5.058         5.78946        0.505297 
        5.07371          5.7645        0.501325 
        5.08942         5.70943        0.497395 
        5.10513          5.6815        0.493506 
        5.12084         5.63676        0.489657 
        5.13656         5.57805         0.48585 
        5.15225         5.55529         0.48209 
        5.16796         5.50157        0.478364 
        5.18369          5.4714        0.474673 
         5.1994         5.42786        0.471028 
        5.21509         5.39433        0.467425 
        5.23079         5.36742        0.463855 
        5.24649         5.30992        0.460325 
        5.26217          5.2965        0.456835 
        5.27788         5.24487        0.453375 
        5.29359         5.20859        0.449951 
        5.30933         5.17732        0.446557 
        5.32504         5.13321        0.443204 
        5.34073         5.10553        0.439889 
        5.35646         5.06572        0.436602 
        5.37218          5.0343        0.433347 
        5.38789         4.99446         0.43013 
        5.40357         4.95623         0.42695 
        5.41929         4.91866        0.423795 
        5.43502         4.88415        0.420672 
         5.4507         4.86819        0.417587 
        5.46639         4.83316        0.414533 
        5.48212          4.7982        0.411502 
        5.49786         4.76604        0.408498 
        5.51353         4.73484        0.405539 
        5.52921         4.69664        0.402606 
        5.54495         4.66294        0.399694 
        5.56066         4.62454        0.396813 
        5.57637         4.59743        0.393962 
        5.59207         4.56827         0.39114 
        5.60778         4.53916        0.388346 
        5.62346         4.50568        0.385582 
        5.63916         4.47401        0.382843 
        5.65487          4.4529        0.380129 
         5.6706         4.42194        0.377438 
        5.68633         4.38762        0.374772 
        5.70203         4.35817        0.372138 
        5.71773         4.33073        0.369529 
        5.73344         4.29631        0.366944 
        5.74916         4.28281        0.364381 
        5.76486         4.23512        0.361846 
        5.78054         4.23456        0.359339 
        5.79626         4.18965        0.356849 
          5.812         4.16586        0.354379 
         5.8277         4.14259        0.351941 
        5.84339         4.10856        0.349525 
        5.85911         4.08244        0.347128 
        5.87484         4.05679        0.344753 
        5.89053         4.03623        0.342405 
        5.90623         4.00609        0.340078 
        5.92195         3.98436        0.337769 
        5.93767         3.95452        0.335482 
        5.95336         3.93337         0.33322 
        5.96905         3.90963         0.33098 
        5.98476         3.88308        0.328757 
        6.00048         3.85999        0.326554 
        6.01617         3.82062        0.324374 
        6.03185          3.8021        0.322217 
        6.04756         3.77864        0.320074 
        6.06331         3.75848        0.317946 
        6.07903          3.7337        0.315842 
        6.09473          3.7141        0.313759 
        6.11044         3.68847        0.311693 
        6.12616         3.66553        0.309645 
        6.14186         3.64494        0.307618 
        6.15755         3.62098         0.30561 
        6.17326         3.59791        0.303617 
        6.18898         3.57043        0.301642 
        6.20467         3.55102        0.299687 
        6.22036         3.52673         0.29775 
         6.2361         3.51374        0.295825 
         6.2518         3.49794         0.29392 
        6.26748         3.46887        0.292036 
        6.28319         3.44008        0.290164 
        6.29893         3.42537        0.288306 
        6.31463         3.40256        0.286467 
        6.33033         3.39351        0.284646 
        6.34604         3.36614        0.282838 
        6.36177         3.34464        0.281045 
        6.37747         3.33033         0.27927 
