# k  (h/Mpc)    Pcb(k)  (Mpc/h)^3    Pcb_linear(k) (Mpc/h)^3   ShotnoiseSubtracted = true
      0.0200456         22321.5         22861.8 
      0.0350414         17011.7           17926 
      0.0492313         13743.1         14202.9 
      0.0637834           11682         11549.2 
      0.0800726         8871.04         8724.31 
       0.096163         6514.21         6862.23 
       0.111083         5464.84         5808.87 
       0.126058         4850.39         4828.82 
       0.142273         4105.35         3929.39 
       0.158546         3771.75         3347.38 
        0.17375         3065.26         2912.34 
       0.188953         2958.23         2503.72 
       0.204907         2770.92         2167.33 
       0.220756         2439.17         1915.58 
        0.23588         2191.67         1701.45 
         0.2514            1916         1507.62 
       0.267535         1923.33         1344.54 
       0.283568         1748.14         1208.18 
       0.299022         1660.96         1091.02 
       0.314451         1583.91         989.186 
       0.330372         1453.07         899.411 
       0.346141         1417.89         821.058 
       0.361624         1360.06         752.515 
       0.377134         1269.88         691.897 
       0.392932         1223.02         637.272 
       0.408854         1200.12          588.02 
       0.424564         1110.94         544.395 
       0.440253         1089.06         505.347 
       0.455999         1067.57         470.041 
       0.471626         1024.82         438.287 
        0.48727         987.855         409.429 
       0.502856         955.025         383.278 
       0.518488         950.403         359.345 
       0.534347         892.439         337.143 
       0.550082         877.184         316.971 
       0.565732         869.009         298.551 
       0.581496         825.933         281.478 
       0.597222         808.796         265.777 
       0.612804         797.387         251.406 
       0.628434         776.705         238.063 
       0.644267         756.015         225.537 
       0.660051         736.214          213.95 
       0.675724         730.975         203.252 
       0.691403         706.671         193.285 
       0.707174         685.414         183.936 
       0.722871         674.351         175.247 
        0.73838         660.788         167.215 
       0.754018         651.253         159.629 
       0.769845         638.714         152.432 
        0.78569         627.604         145.673 
       0.801365         611.573         139.391 
       0.817031         598.806         133.485 
       0.832809         592.129         127.884 
       0.848511         578.148          122.63 
       0.864097         560.642         117.709 
       0.879701         553.375         113.054 
       0.895507         552.535         108.596 
       0.911279         538.354         104.389 
        0.92691         531.797          100.44 
       0.942635         516.053         96.6749 
       0.958396         502.931         93.0954 
       0.974128          498.34         89.7046 
       0.989692         493.221         86.5169 
        1.00528         477.106         83.4802 
        1.02113         476.528         80.5424 
        1.03692         463.194         77.7575 
        1.05264         458.136         75.1178 
        1.06832          446.77         72.6053 
        1.08405         442.406         70.2017 
        1.09979          435.49         67.9059 
        1.11537         427.185          65.736 
        1.13105         421.126         63.6484 
        1.14679         410.951         61.6438 
        1.16256         400.076          59.722 
        1.17828         401.333         57.8888 
        1.19395         392.167          56.139 
         1.2097         383.281          54.453 
        1.22537         376.459         52.8445 
          1.241         371.109         51.3062 
        1.25666         365.413         49.8255 
        1.27241         359.904         48.3964 
        1.28819         353.047         47.0212 
        1.30392         347.103         45.7036 
        1.31957         342.526         44.4425 
        1.33529         339.251         43.2246 
        1.35108         331.309         42.0476 
        1.36674         324.902          40.923 
         1.3824         322.443         39.8407 
        1.39811         315.933         38.7941 
        1.41389         312.621         37.7812 
        1.42964         308.471         36.8062 
        1.44531         304.182         35.8706 
        1.46101          296.85         34.9656 
        1.47667         293.421         34.0945 
        1.49229         289.338         33.2556 
        1.50793         282.649         32.4441 
        1.52367         281.229         31.6544 
        1.53953         275.172         30.8859 
        1.55526         271.558          30.149 
        1.57092         269.728         29.4393 
        1.58662         265.388         28.7508 
        1.60235          260.19         28.0831 
        1.61809         256.488         27.4363 
        1.63369         253.625         26.8157 
        1.64941         248.779         26.2098 
        1.66519         246.184         25.6206 
        1.68085         243.795         25.0537 
        1.69652          239.08         24.5038 
        1.71228         233.043         23.9674 
        1.72806         230.463         23.4466 
        1.74368         227.583         22.9465 
        1.75933          224.66         22.4601 
        1.77505         222.409         21.9855 
        1.79081          219.08         21.5239 
         1.8065         214.409         21.0774 
        1.82218         212.281         20.6441 
        1.83797         211.223           20.22 
        1.85367         206.932         19.8102 
        1.86928         203.146         19.4142 
        1.88497         201.264         19.0269 
        1.90073         198.341         18.6488 
        1.91647         195.922         18.2813 
        1.93218         192.578         17.9245 
        1.94787         189.013         17.5777 
        1.96363          186.57         17.2388 
        1.97935         184.715         16.9095 
        1.99499           182.5         16.5907 
        2.01064         179.759         16.2797 
         2.0264         178.527         15.9747 
        2.04216         175.755         15.6777 
        2.05781         172.944         15.3901 
        2.07353         170.258         15.1087 
        2.08928         168.011         14.8338 
        2.10499         166.523         14.5664 
        2.12065         164.026         14.3064 
        2.13633         161.542         14.0526 
        2.15211           159.4         13.8033 
        2.16785         157.899         13.5608 
        2.18349         155.689         13.3256 
        2.19916         153.524         13.0955 
        2.21489          151.97           12.87 
        2.23063         149.965         12.6498 
         2.2463         146.956         12.4357 
        2.26194         145.227          12.227 
        2.27765         143.652         12.0221 
        2.29341         142.116         11.8214 
        2.30914         140.306         11.6257 
        2.32486         138.662         11.4345 
        2.34061         136.749         11.2473 
        2.35635         134.815         11.0645 
        2.37203         133.463         10.8864 
        2.38768         131.369         10.7125 
        2.40339         129.869         10.5419 
        2.41914         128.184         10.3745 
        2.43483         127.236         10.2114 
         2.4505          125.52         10.0521 
        2.46622         123.864         9.89559 
        2.48195         121.942         9.74244 
        2.49759         120.728         9.59335 
        2.51328         119.737           9.447 
        2.52906         117.837         9.30278 
        2.54479         115.943         9.16211 
        2.56049         114.581         9.02462 
        2.57618         113.578         8.89007 
        2.59189         112.719         8.75807 
        2.60758         110.775         8.62896 
        2.62325         109.693          8.5026 
        2.63898         108.214         8.37834 
        2.65468         106.898         8.25683 
        2.67044         105.574         8.13721 
        2.68618         104.804         8.02023 
        2.70184         103.485         7.90603 
        2.71755         102.261         7.79376 
        2.73329         100.733          7.6835 
        2.74897         100.044         7.57574 
        2.76462         98.5575         7.47028 
        2.78034         97.5463          7.3664 
        2.79607          96.386         7.26438 
        2.81179         95.6747         7.16442 
        2.82749         94.4281         7.06644 
        2.84321         93.0693         6.97019 
        2.85893          91.878         6.87577 
        2.87462         90.9776         6.78325 
        2.89033         89.9916         6.69236 
        2.90605          89.296         6.60305 
        2.92176         87.8428         6.51541 
        2.93747         87.1896         6.42942 
        2.95318         86.3764         6.34496 
        2.96891         85.4974         6.26197 
        2.98456         84.4133         6.18084 
        3.00023         83.4372         6.10103 
        3.01596         82.2221         6.02238 
        3.03164         81.7211         5.94534 
        3.04738         80.7426         5.86943 
         3.0631         79.8299         5.79486 
        3.07883         78.9088         5.72159 
        3.09456          78.376          5.6496 
        3.11026         77.2479         5.57896 
        3.12596         76.6129         5.50953 
        3.14163         75.6974         5.44144 
        3.15734         74.9727         5.37435 
        3.17308         74.0691         5.30823 
        3.18879         73.2538          5.2434 
        3.20447         72.5146         5.17975 
         3.2202         71.7359         5.11695 
         3.2359         70.9747         5.05531 
        3.25157         70.2682         4.99484 
        3.26729         69.6278         4.93516 
        3.28304         68.7165         4.87635 
        3.29877         68.1489         4.81857 
        3.31446         67.3456         4.76186 
        3.33014         66.5621         4.70611 
        3.34585         65.8415         4.65116 
        3.36158         65.2702         4.59701 
        3.37727         64.7507         4.54389 
        3.39294         63.9679         4.49166 
        3.40867         63.3999         4.44007 
        3.42439         62.6191         4.38931 
        3.44008         62.0718         4.33944 
        3.45578         61.2304         4.29031 
        3.47153         60.7808         4.24184 
        3.48724         60.4317          4.1942 
        3.50292         59.8457          4.1474 
        3.51859         59.0423         4.10134 
        3.53431         58.5007         4.05583 
        3.55007         58.0574          4.0109 
        3.56577         57.3057         3.96683 
        3.58146         56.7153         3.92345 
        3.59719         56.3307         3.88061 
        3.61292         55.7145         3.83842 
        3.62859         55.1238         3.79702 
        3.64429         54.5562         3.75615 
        3.66003         54.1003         3.71576 
        3.67578         53.6651         3.67598 
        3.69146         53.0814         3.63693 
        3.70712         52.6384         3.59852 
        3.72284         52.0878         3.56052 
        3.73853         51.6272         3.52313 
        3.75422         51.0225         3.48627 
        3.76993         50.5916         3.44991 
        3.78564         50.1068         3.41407 
        3.80137         49.7572         3.37869 
        3.81707         49.1595         3.34388 
        3.83279         48.6481         3.30954 
        3.84853         48.3856         3.27562 
        3.86424           48.03         3.24224 
        3.87992          47.402         3.20938 
        3.89561         46.9342         3.17697 
        3.91134         46.5521         3.14495 
        3.92704         46.1226          3.1134 
        3.94273         45.5627         3.08231 
        3.95845         45.1666         3.05159 
        3.97418         44.8808         3.02129 
        3.98988         44.3994         2.99144 
        4.00554         44.0663         2.96207 
        4.02125         43.5908         2.93301 
        4.03698         43.2569          2.9043 
        4.05268         42.6878         2.87603 
        4.06839         42.3692         2.84813 
         4.0841         42.1361          2.8206 
        4.09983         41.7455         2.79339 
        4.11555          41.311         2.76656 
        4.13124         40.9397         2.74015 
        4.14693           40.73         2.71406 
        4.16266         40.3136         2.68825 
        4.17839         39.9508          2.6628 
        4.19408         39.4668         2.63773 
        4.20977         39.2471         2.61297 
        4.22551          38.789         2.58847 
        4.24123         38.5033         2.56431 
        4.25691         38.1104         2.54053 
        4.27259         37.7892         2.51703 
        4.28831         37.5612         2.49379 
        4.30404          37.169         2.47082 
        4.31974         36.8795         2.44819 
        4.33543         36.4533         2.42586 
        4.35116         36.2619         2.40375 
        4.36688         36.0051         2.38192 
        4.38255         35.5265         2.36045 
        4.39825         35.2545         2.33919 
        4.41398         35.0087         2.31815 
         4.4297         34.6199          2.2974 
        4.44541         34.4831          2.2769 
        4.46111         34.1429         2.25667 
        4.47683          33.799         2.23667 
        4.49251         33.5032         2.21695 
        4.50819         33.1863         2.19747 
         4.5239         33.0029          2.1782 
        4.53962         32.6984         2.15914 
        4.55535         32.4165          2.1403 
        4.57106         32.1742         2.12171 
        4.58678         31.8707         2.10333 
         4.6025         31.5543         2.08517 
        4.61821         31.3378         2.06723 
        4.63391         31.0943         2.04952 
         4.6496         30.7771         2.03202 
        4.66532         30.6024          2.0147 
        4.68103         30.4193         1.99759 
        4.69673         30.0474          1.9807 
        4.71241         29.9194         1.96402 
        4.72811         29.5336          1.9475 
        4.74384         29.3501         1.93115 
        4.75955         29.0882         1.91501 
        4.77525         28.8882         1.89907 
        4.79096         28.7039         1.88329 
        4.80669         28.3681         1.86768 
         4.8224         28.2304         1.85227 
        4.83809         27.9687         1.83704 
        4.85379         27.7181         1.82198 
         4.8695         27.4877         1.80707 
        4.88521         27.3096         1.79234 
        4.90093         27.0499         1.77777 
        4.91663         26.8106         1.76337 
        4.93234         26.6319         1.74912 
        4.94807         26.4367         1.73502 
        4.96377         26.1923          1.7211 
        4.97943         26.0577         1.70736 
        4.99514         25.8181         1.69373 
        5.01086         25.5764         1.68024 
        5.02654         25.4084         1.66694 
        5.04227         25.1502         1.65374 
          5.058         25.0269         1.64067 
        5.07371          24.794         1.62777 
        5.08942         24.6331         1.61501 
        5.10513         24.3981         1.60239 
        5.12084         24.2194         1.58989 
        5.13656         24.0867         1.57753 
        5.15225         23.8722         1.56532 
        5.16796         23.6796         1.55322 
        5.18369         23.4356         1.54124 
         5.1994         23.3247          1.5294 
        5.21509         23.1394          1.5177 
        5.23079           22.91         1.50611 
        5.24649         22.7359         1.49465 
        5.26217         22.5361         1.48332 
        5.27788         22.4277         1.47208 
        5.29359         22.3082         1.46097 
        5.30933         22.0603         1.44995 
        5.32504         21.9249         1.43906 
        5.34073         21.7486          1.4283 
        5.35646         21.6149         1.41762 
        5.37218         21.4359         1.40705 
        5.38789         21.2463         1.39661 
        5.40357         21.0918         1.38628 
        5.41929         20.9538         1.37604 
        5.43502         20.7978          1.3659 
         5.4507         20.6485         1.35588 
        5.46639         20.4652         1.34596 
        5.48212         20.3066         1.33612 
        5.49786         20.1834         1.32637 
        5.51353         20.0051         1.31676 
        5.52921         19.8544         1.30724 
        5.54495         19.7237         1.29778 
        5.56066           19.59         1.28843 
        5.57637         19.4279         1.27917 
        5.59207         19.2651         1.27001 
        5.60778         19.0992         1.26094 
        5.62346         18.9772         1.25196 
        5.63916         18.8982         1.24307 
        5.65487         18.7049         1.23426 
         5.6706         18.6161         1.22552 
        5.68633          18.433         1.21686 
        5.70203         18.2971         1.20831 
        5.71773         18.2029         1.19984 
        5.73344         18.0727         1.19144 
        5.74916         17.9065         1.18312 
        5.76486         17.7928         1.17489 
        5.78054         17.6455         1.16675 
        5.79626         17.5367         1.15867 
          5.812         17.4241         1.15065 
         5.8277         17.3163         1.14273 
        5.84339         17.2047         1.13489 
        5.85911         17.0553          1.1271 
        5.87484         16.9297         1.11939 
        5.89053         16.8119         1.11177 
        5.90623         16.7232         1.10421 
        5.92195         16.5855         1.09672 
        5.93767         16.4412         1.08929 
        5.95336         16.3388         1.08195 
        5.96905         16.2455         1.07467 
        5.98476          16.115         1.06746 
        6.00048         16.0064          1.0603 
        6.01617          15.899         1.05323 
        6.03185         15.7776         1.04622 
        6.04756         15.6622         1.03926 
        6.06331         15.5616         1.03235 
        6.07903         15.4509         1.02552 
        6.09473         15.3591         1.01876 
        6.11044         15.2321         1.01205 
        6.12616         15.1274          1.0054 
        6.14186         15.0336        0.998819 
        6.15755          14.933        0.992297 
        6.17326         14.8107        0.985828 
        6.18898         14.7433        0.979413 
        6.20467         14.6472        0.973068 
        6.22036         14.5283        0.966778 
         6.2361         14.4169        0.960528 
         6.2518         14.2943        0.954343 
        6.26748         14.2294        0.948225 
        6.28319         14.1501        0.942145 
        6.29893         14.0146        0.936113 
        6.31463         13.9334        0.930143 
        6.33033          13.857        0.924228 
        6.34604         13.7472         0.91836 
        6.36177         13.6866        0.912537 
        6.37747         13.5627        0.906775 
