# k  (h/Mpc)    Pcb(k)  (Mpc/h)^3    Pcb_linear(k) (Mpc/h)^3   ShotnoiseSubtracted = true
      0.0200456          1482.7         1501.78 
      0.0350414         1167.49         1177.55 
      0.0492313         932.137         932.981 
      0.0637834         765.413         758.662 
      0.0800726         581.951         573.096 
       0.096163          447.37         450.777 
       0.111083         374.813         381.582 
       0.126058         319.509         317.203 
       0.142273         263.173          258.12 
       0.158546         223.568         219.888 
        0.17375         190.263          191.31 
       0.188953         167.992         164.468 
       0.204907         150.976         142.371 
       0.220756         130.341         125.833 
        0.23588         115.565         111.767 
         0.2514          101.66         99.0347 
       0.267535         92.1107         88.3221 
       0.283568         83.3786          79.365 
       0.299022         76.1543         71.6689 
       0.314451         67.8485         64.9792 
       0.330372         62.6774         59.0819 
       0.346141         57.1546         53.9349 
       0.361624          53.042         49.4324 
       0.377134         49.6582         45.4504 
       0.392932         44.0605         41.8621 
       0.408854         42.3241         38.6268 
       0.424564         39.6042         35.7611 
       0.440253         36.5074         33.1961 
       0.455999         34.4498         30.8768 
       0.471626         32.3308         28.7909 
        0.48727         30.5245         26.8952 
       0.502856         28.5308         25.1774 
       0.518488         27.2688         23.6052 
       0.534347         26.0591         22.1468 
       0.550082         23.8475         20.8217 
       0.565732         22.1425         19.6117 
       0.581496         21.7093         18.4902 
       0.597222         20.8844         17.4588 
       0.612804         19.4541         16.5147 
       0.628434         18.7569         15.6382 
       0.644267         18.1077         14.8154 
       0.660051         17.1012         14.0543 
       0.675724         16.2399         13.3516 
       0.691403         15.6973         12.6968 
       0.707174         15.0204         12.0827 
       0.722871         14.4092         11.5119 
        0.73838         13.8836         10.9843 
       0.754018         13.3884         10.4859 
       0.769845         12.7958         10.0132 
        0.78569         12.4039         9.56918 
       0.801365         11.8894         9.15653 
       0.817031         11.5346         8.76855 
       0.832809         11.2259         8.40064 
       0.848511          10.561         8.05553 
       0.864097         10.2711         7.73224 
       0.879701          9.9523         7.42644 
       0.895507         9.54728         7.13362 
       0.911279         9.39361         6.85725 
        0.92691         9.06616         6.59787 
       0.942635         8.68043         6.35053 
       0.958396         8.42256          6.1154 
       0.974128         8.20269         5.89266 
       0.989692         8.09625         5.68326 
        1.00528         7.77165         5.48378 
        1.02113         7.47636         5.29079 
        1.03692         7.33368         5.10786 
        1.05264         7.11202         4.93445 
        1.06832         6.95431         4.76941 
        1.08405         6.68485         4.61152 
        1.09979         6.53765         4.46071 
        1.11537         6.41408         4.31817 
        1.13105         6.23398         4.18104 
        1.14679         6.09164         4.04936 
        1.16256         5.91583         3.92311 
        1.17828         5.81528         3.80269 
        1.19395         5.64415         3.68775 
         1.2097         5.45765         3.57699 
        1.22537         5.33353         3.47134 
          1.241         5.24326         3.37028 
        1.25666         5.19225         3.27301 
        1.27241         5.00497         3.17914 
        1.28819         4.88731          3.0888 
        1.30392          4.8101         3.00225 
        1.31957         4.70443         2.91941 
        1.33529         4.59872         2.83941 
        1.35108         4.48716         2.76209 
        1.36674         4.43135         2.68822 
         1.3824         4.26694         2.61712 
        1.39811         4.21017         2.54837 
        1.41389         4.14223         2.48183 
        1.42964         4.06105         2.41779 
        1.44531         3.98343         2.35632 
        1.46101         3.90713         2.29687 
        1.47667         3.80088         2.23966 
        1.49229          3.7712         2.18455 
        1.50793         3.66507         2.13124 
        1.52367         3.64173         2.07937 
        1.53953         3.53684         2.02888 
        1.55526         3.46665         1.98048 
        1.57092         3.42915         1.93386 
        1.58662         3.35071         1.88863 
        1.60235         3.29852         1.84477 
        1.61809         3.23988         1.80228 
        1.63369          3.1889         1.76151 
        1.64941         3.13177         1.72171 
        1.66519         3.08737         1.68301 
        1.68085         3.01341         1.64577 
        1.69652         2.96919         1.60964 
        1.71228         2.92994         1.57441 
        1.72806         2.86977          1.5402 
        1.74368          2.8268         1.50735 
        1.75933         2.78289         1.47539 
        1.77505         2.74391         1.44422 
        1.79081         2.69352         1.41389 
         1.8065         2.65512         1.38457 
        1.82218         2.62377          1.3561 
        1.83797         2.59377         1.32824 
        1.85367          2.5535         1.30132 
        1.86928         2.51363         1.27531 
        1.88497          2.4644         1.24987 
        1.90073         2.42621         1.22503 
        1.91647         2.39277         1.20089 
        1.93218         2.37629         1.17745 
        1.94787         2.33377         1.15467 
        1.96363         2.29617         1.13241 
        1.97935         2.26044         1.11078 
        1.99499         2.21636         1.08984 
        2.01064         2.19959         1.06941 
         2.0264         2.18314         1.04937 
        2.04216         2.14522         1.02986 
        2.05781         2.11297         1.01097 
        2.07353         2.09149        0.992485 
        2.08928         2.06167        0.974424 
        2.10499         2.03362        0.956861 
        2.12065         2.01814        0.939784 
        2.13633         1.98214         0.92311 
        2.15211         1.95373        0.906733 
        2.16785          1.9326          0.8908 
        2.18349          1.9136         0.87535 
        2.19916         1.87548        0.860235 
        2.21489         1.85599        0.845427 
        2.23063         1.83184        0.830957 
         2.2463         1.81745        0.816893 
        2.26194         1.78607        0.803189 
        2.27765         1.76875        0.789729 
        2.29341         1.75143        0.776543 
        2.30914         1.73299        0.763686 
        2.32486         1.71409        0.751128 
        2.34061         1.68883        0.738831 
        2.35635         1.66181        0.726821 
        2.37203         1.65562         0.71512 
        2.38768         1.63667          0.7037 
        2.40339         1.62111         0.69249 
        2.41914         1.59913        0.681497 
        2.43483         1.58083        0.670782 
         2.4505          1.5586        0.660316 
        2.46622         1.54635        0.650037 
        2.48195         1.53344        0.639977 
        2.49759         1.51393        0.630183 
        2.51328         1.49288        0.620569 
        2.52906         1.48234        0.611095 
        2.54479         1.46538        0.601855 
        2.56049         1.44889        0.592823 
        2.57618         1.43723        0.583985 
        2.59189         1.42583        0.575314 
        2.60758         1.40369        0.566832 
        2.62325         1.39241        0.558532 
        2.63898         1.37824         0.55037 
        2.65468         1.36585        0.542388 
        2.67044         1.35358         0.53453 
        2.68618         1.33323        0.526846 
        2.70184         1.32055        0.519343 
        2.71755         1.30924        0.511969 
        2.73329         1.29727        0.504726 
        2.74897         1.28513        0.497647 
        2.76462         1.27107         0.49072 
        2.78034         1.26517        0.483896 
        2.79607         1.24882        0.477194 
        2.81179         1.23451        0.470627 
        2.82749         1.22682        0.464192 
        2.84321         1.21788        0.457869 
        2.85893         1.20085        0.451666 
        2.87462         1.19438        0.445589 
        2.89033         1.17615        0.439618 
        2.90605         1.16851        0.433751 
        2.92176         1.15952        0.427995 
        2.93747         1.15063        0.422346 
        2.95318         1.14079        0.416797 
        2.96891         1.12807        0.411346 
        2.98456          1.1234        0.406017 
        3.00023         1.10926        0.400774 
        3.01596         1.10423        0.395608 
        3.03164         1.09461        0.390547 
        3.04738         1.07692         0.38556 
         3.0631         1.07218        0.380662 
        3.07883         1.06387        0.375849 
        3.09456         1.05724         0.37112 
        3.11026         1.04562        0.366479 
        3.12596         1.03806        0.361919 
        3.14163         1.02781        0.357446 
        3.15734         1.02351        0.353039 
        3.17308         1.01224        0.348695 
        3.18879         1.00437        0.344437 
        3.20447        0.993924        0.340255 
         3.2202        0.988203        0.336131 
         3.2359        0.982187        0.332081 
        3.25157        0.971999        0.328109 
        3.26729          0.9669        0.324189 
        3.28304        0.956954        0.320325 
        3.29877        0.948515         0.31653 
        3.31446         0.94357        0.312804 
        3.33014        0.938619        0.309142 
        3.34585        0.928821        0.305533 
        3.36158         0.91909        0.301976 
        3.37727        0.917421        0.298486 
        3.39294        0.909045        0.295055 
        3.40867        0.903494        0.291666 
        3.42439        0.894322        0.288332 
        3.44008         0.88975        0.285056 
        3.45578        0.883935        0.281829 
        3.47153        0.875122        0.278645 
        3.48724        0.871056        0.275515 
        3.50292        0.867149        0.272441 
        3.51859         0.85966        0.269415 
        3.53431        0.853235        0.266426 
        3.55007        0.850349        0.263475 
        3.56577        0.841823         0.26058 
        3.58146        0.835034        0.257729 
        3.59719        0.832587        0.254915 
        3.61292        0.826925        0.252144 
        3.62859        0.817121        0.249425 
        3.64429        0.815351         0.24674 
        3.66003        0.808415        0.244087 
        3.67578        0.802966        0.241474 
        3.69146        0.799386        0.238908 
        3.70712        0.791358        0.236385 
        3.72284        0.789359        0.233889 
        3.73853        0.781442        0.231433 
        3.75422        0.776567        0.229012 
        3.76993         0.77532        0.226623 
        3.78564        0.769078        0.224269 
        3.80137         0.76205        0.221945 
        3.81707        0.760407        0.219658 
        3.83279        0.753253        0.217402 
        3.84853         0.74795        0.215174 
        3.86424        0.745502        0.212982 
        3.87992        0.740544        0.210823 
        3.89561          0.7358        0.208694 
        3.91134         0.73068         0.20659 
        3.92704        0.725598        0.204518 
        3.94273        0.722543        0.202476 
        3.95845        0.717913        0.200458 
        3.97418         0.71234        0.198467 
        3.98988        0.708446        0.196506 
        4.00554        0.704946        0.194577 
        4.02125        0.698847        0.192668 
        4.03698         0.69086        0.190782 
        4.05268         0.68636        0.188925 
        4.06839        0.680782        0.187092 
         4.0841        0.677063        0.185284 
        4.09983        0.673015        0.183497 
        4.11555        0.666407        0.181734 
        4.13124        0.661162        0.179999 
        4.14693        0.656107        0.178285 
        4.16266        0.652289         0.17659 
        4.17839        0.648354        0.174918 
        4.19408         0.64358        0.173271 
        4.20977         0.63902        0.171645 
        4.22551        0.634835        0.170036 
        4.24123        0.630323        0.168449 
        4.25691        0.626997        0.166886 
        4.27259         0.62242        0.165343 
        4.28831        0.618574        0.163816 
        4.30404        0.614582        0.162307 
        4.31974         0.61062        0.160821 
        4.33543        0.607712        0.159353 
        4.35116        0.604676        0.157901 
        4.36688        0.599897        0.156467 
        4.38255        0.597815        0.155057 
        4.39825        0.594369         0.15366 
        4.41398        0.590004        0.152278 
         4.4297        0.587251        0.150915 
        4.44541        0.584221        0.149569 
        4.46111        0.582735         0.14824 
        4.47683        0.579077        0.146926 
        4.49251         0.57573         0.14563 
        4.50819        0.572695        0.144351 
         4.5239        0.572208        0.143085 
        4.53962        0.568631        0.141833 
        4.55535          0.5674        0.140595 
        4.57106        0.563413        0.139374 
        4.58678        0.560901        0.138167 
         4.6025        0.558344        0.136974 
        4.61821        0.557055        0.135795 
        4.63391         0.55348        0.134632 
         4.6496           0.551        0.133482 
        4.66532        0.550475        0.132345 
        4.68103        0.547553        0.131221 
        4.69673        0.546431        0.130111 
        4.71241        0.542522        0.129015 
        4.72811        0.542831         0.12793 
        4.74384        0.539789        0.126856 
        4.75955        0.538859        0.125797 
        4.77525        0.536481        0.124749 
        4.79096        0.536379        0.123713 
        4.80669        0.533129        0.122687 
         4.8224        0.533711        0.121675 
        4.83809        0.530392        0.120675 
        4.85379        0.530174        0.119685 
         4.8695        0.529148        0.118706 
        4.88521        0.526418        0.117738 
        4.90093        0.526639        0.116781 
        4.91663        0.523898        0.115835 
        4.93234        0.522802        0.114899 
        4.94807        0.523172        0.113973 
        4.96377        0.521857        0.113058 
        4.97943         0.52087        0.112155 
        4.99514        0.518678         0.11126 
        5.01086         0.51971        0.110374 
        5.02654        0.518221          0.1095 
        5.04227        0.517101        0.108633 
          5.058        0.516147        0.107775 
        5.07371        0.515365        0.106928 
        5.08942        0.515489        0.106089 
        5.10513        0.513712         0.10526 
        5.12084        0.513779        0.104439 
        5.13656        0.514117        0.103627 
        5.15225        0.513516        0.102825 
        5.16796        0.512252         0.10203 
        5.18369        0.513085        0.101243 
         5.1994        0.513671        0.100466 
        5.21509        0.511674       0.0996972 
        5.23079        0.511716       0.0989358 
        5.24649        0.511942       0.0981829 
        5.26217         0.51074       0.0974384 
        5.27788        0.511859       0.0967006 
        5.29359        0.511158       0.0959702 
        5.30933         0.51088       0.0952464 
        5.32504        0.510702       0.0945312 
        5.34073        0.510677       0.0938241 
        5.35646        0.511318       0.0931229 
        5.37218        0.512017       0.0924286 
        5.38789        0.510932       0.0917426 
        5.40357        0.511917       0.0910643 
        5.41929        0.512569       0.0903914 
        5.43502         0.51251       0.0897252 
         5.4507        0.512071       0.0890673 
        5.46639        0.513099       0.0884159 
        5.48212        0.511875       0.0877694 
        5.49786        0.512561       0.0871287 
        5.51353        0.513397       0.0864975 
        5.52921        0.512894        0.085872 
        5.54495        0.513523       0.0852508 
        5.56066        0.514796       0.0846364 
        5.57637        0.513899       0.0840282 
        5.59207        0.515436       0.0834264 
        5.60778        0.515236       0.0828304 
        5.62346         0.51539       0.0822409 
        5.63916        0.515958       0.0816567 
        5.65487        0.516993       0.0810778 
         5.6706        0.517615       0.0805039 
        5.68633        0.518032       0.0799353 
        5.70203         0.51938       0.0793733 
        5.71773        0.519097       0.0788169 
        5.73344        0.518603       0.0782655 
        5.74916        0.520246       0.0777189 
        5.76486        0.520461       0.0771782 
        5.78054        0.521123       0.0766435 
        5.79626        0.521392       0.0761123 
          5.812        0.523631       0.0755857 
         5.8277        0.523236       0.0750656 
        5.84339        0.524553       0.0745503 
        5.85911        0.524387       0.0740389 
        5.87484        0.524646       0.0735324 
        5.89053        0.525774       0.0730317 
        5.90623        0.526107       0.0725354 
        5.92195        0.526761       0.0720428 
        5.93767        0.527832        0.071555 
        5.95336        0.526954       0.0710726 
        5.96905        0.527865       0.0705948 
        5.98476        0.529703       0.0701207 
        6.00048        0.530909       0.0696509 
        6.01617        0.531374       0.0691859 
        6.03185        0.530892       0.0687258 
        6.04756        0.532834       0.0682687 
        6.06331        0.533715       0.0678148 
        6.07903        0.535067        0.067366 
        6.09473        0.535877       0.0669217 
        6.11044         0.53639        0.066481 
        6.12616         0.53663       0.0660443 
        6.14186        0.535728        0.065612 
        6.15755        0.537574       0.0651835 
        6.17326        0.538304       0.0647586 
        6.18898        0.538676       0.0643372 
        6.20467        0.541113       0.0639204 
        6.22036        0.539514       0.0635073 
         6.2361        0.540851       0.0630967 
         6.2518        0.540502       0.0626904 
        6.26748        0.542117       0.0622885 
        6.28319        0.544198       0.0618891 
        6.29893        0.544322       0.0614928 
        6.31463        0.544733       0.0611007 
        6.33033        0.543725       0.0607121 
        6.34604        0.545281       0.0603266 
        6.36177        0.545343       0.0599441 
        6.37747        0.547826       0.0595657 
