# k  (h/Mpc)    Pcb(k)  (Mpc/h)^3    Pcb_linear(k) (Mpc/h)^3   ShotnoiseSubtracted = true
      0.0200456         23582.2         24167.1 
      0.0350414         17948.8         18949.5 
      0.0492313         14501.4         15013.8 
      0.0637834           12342         12208.6 
      0.0800726         9371.72         9222.45 
       0.096163         6873.63         7254.05 
       0.111083         5772.77         6140.54 
       0.126058         5124.28         5104.54 
       0.142273         4340.97         4153.75 
       0.158546         4002.52         3538.51 
        0.17375         3254.82         3078.63 
       0.188953         3145.93         2646.68 
       0.204907         2947.24         2291.08 
       0.220756         2596.71         2024.95 
        0.23588         2338.15          1798.6 
         0.2514         2047.98          1593.7 
       0.267535         2057.53         1421.31 
       0.283568         1869.98         1277.17 
       0.299022         1780.09         1153.32 
       0.314451         1696.81         1045.67 
       0.330372         1554.71         950.765 
       0.346141         1526.58         867.938 
       0.361624          1464.6         795.482 
       0.377134         1369.35         731.403 
       0.392932         1317.57         673.659 
       0.408854         1293.97         621.595 
       0.424564         1196.32         575.479 
       0.440253         1172.42         534.202 
       0.455999         1154.44          496.88 
       0.471626         1108.15         463.312 
        0.48727         1069.15         432.807 
       0.502856         1030.56         405.163 
       0.518488          1029.9         379.863 
       0.534347         965.918         356.393 
       0.550082         952.582         335.069 
       0.565732         941.078         315.597 
       0.581496         896.932          297.55 
       0.597222         876.628         280.952 
       0.612804         865.308         265.761 
       0.628434         843.752         251.656 
       0.644267         821.343         238.414 
       0.660051         802.001         226.166 
       0.675724         796.108         214.858 
       0.691403         770.903         204.321 
       0.707174         747.044         194.438 
       0.722871         732.744         185.253 
        0.73838         719.193         176.763 
       0.754018          709.59         168.743 
       0.769845         696.078         161.135 
        0.78569         685.377          153.99 
       0.801365         667.143          147.35 
       0.817031         654.916         141.106 
       0.832809         646.448         135.186 
       0.848511         631.412         129.632 
       0.864097         612.298          124.43 
       0.879701         604.053         119.509 
       0.895507         603.563         114.797 
       0.911279         589.733         110.349 
        0.92691         581.694         106.175 
       0.942635         564.155         102.195 
       0.958396         551.403          98.411 
       0.974128         546.788         94.8265 
       0.989692         540.515         91.4568 
        1.00528         522.057         88.2467 
        1.02113         522.134         85.1412 
        1.03692         508.382         82.1973 
        1.05264         501.557         79.4069 
        1.06832         490.311         76.7509 
        1.08405         485.209           74.21 
        1.09979         477.672         71.7832 
        1.11537         469.287         69.4894 
        1.13105         462.862         67.2826 
        1.14679          451.57         65.1636 
        1.16256         440.643          63.132 
        1.17828         441.071         61.1942 
        1.19395         431.665         59.3445 
         1.2097         420.545         57.5621 
        1.22537         414.616         55.8619 
          1.241         407.708         54.2357 
        1.25666         402.363         52.6704 
        1.27241         395.628         51.1597 
        1.28819         387.221          49.706 
        1.30392         382.165         48.3132 
        1.31957         376.176         46.9801 
        1.33529         373.397         45.6926 
        1.35108         364.494         44.4485 
        1.36674         358.235         43.2597 
         1.3824         354.821         42.1155 
        1.39811         347.557         41.0092 
        1.41389         343.723         39.9384 
        1.42964         339.478         38.9078 
        1.44531         335.655         37.9187 
        1.46101         326.685          36.962 
        1.47667           322.3         36.0413 
        1.49229         318.698         35.1544 
        1.50793         310.298         34.2965 
        1.52367          309.61         33.4618 
        1.53953         301.958         32.6494 
        1.55526         299.412         31.8705 
        1.57092         296.989         31.1202 
        1.58662         291.538         30.3925 
        1.60235         286.001         29.6866 
        1.61809         281.921         29.0029 
        1.63369         278.525         28.3468 
        1.64941         272.761         27.7064 
        1.66519         270.689         27.0835 
        1.68085         268.136         26.4842 
        1.69652         263.273         25.9029 
        1.71228         256.467         25.3358 
        1.72806         253.434         24.7853 
        1.74368         249.969         24.2567 
        1.75933         247.456         23.7425 
        1.77505         244.321         23.2409 
        1.79081         241.026         22.7528 
         1.8065         235.853         22.2809 
        1.82218         233.174         21.8228 
        1.83797         232.289         21.3745 
        1.85367         227.477         20.9413 
        1.86928         223.227         20.5227 
        1.88497         221.455         20.1133 
        1.90073         217.686         19.7136 
        1.91647         215.196         19.3251 
        1.93218         211.574         18.9479 
        1.94787         208.143         18.5814 
        1.96363         205.184         18.2231 
        1.97935         202.604          17.875 
        1.99499         200.427          17.538 
        2.01064         196.973         17.2093 
         2.0264          195.91         16.8868 
        2.04216         193.147         16.5729 
        2.05781         189.787         16.2689 
        2.07353         186.869         15.9714 
        2.08928         183.831         15.6807 
        2.10499         182.567         15.3981 
        2.12065         180.103         15.1233 
        2.13633         177.316          14.855 
        2.15211         174.777         14.5914 
        2.16785         173.407          14.335 
        2.18349         170.957         14.0864 
        2.19916         168.396         13.8432 
        2.21489         166.408         13.6049 
        2.23063         164.471          13.372 
         2.2463         161.323         13.1457 
        2.26194         159.404         12.9252 
        2.27765         157.302         12.7086 
        2.29341         155.437         12.4964 
        2.30914         153.584         12.2895 
        2.32486         152.169         12.0874 
        2.34061         149.744         11.8895 
        2.35635         148.029         11.6962 
        2.37203         146.286         11.5079 
        2.38768         143.831         11.3242 
        2.40339         142.239         11.1438 
        2.41914         140.592         10.9669 
        2.43483         139.366         10.7944 
         2.4505         137.643          10.626 
        2.46622         135.697         10.4606 
        2.48195         133.894         10.2987 
        2.49759         132.788         10.1411 
        2.51328         131.617         9.98641 
        2.52906         129.381         9.83395 
        2.54479         127.322         9.68524 
        2.56049         125.655          9.5399 
        2.57618         124.775         9.39768 
        2.59189         123.218         9.25814 
        2.60758         121.263         9.12165 
        2.62325         120.296         8.98808 
        2.63898         118.768         8.85673 
        2.65468         117.276         8.72828 
        2.67044         115.448         8.60182 
        2.68618         114.945         8.47817 
        2.70184         113.096         8.35744 
        2.71755         112.138         8.23877 
        2.73329         110.427         8.12221 
        2.74897         109.449          8.0083 
        2.76462         107.886         7.89682 
        2.78034         106.843           7.787 
        2.79607         105.418         7.67916 
        2.81179         104.857         7.57349 
        2.82749         103.526         7.46992 
        2.84321          101.71         7.36818 
        2.85893          100.46         7.26836 
        2.87462         99.6497         7.17056 
        2.89033         98.3185         7.07448 
        2.90605         97.4236         6.98007 
        2.92176         96.0522         6.88743 
        2.93747         95.1103         6.79652 
        2.95318         94.5855         6.70724 
        2.96891          93.308         6.61952 
        2.98456         92.3383         6.53375 
        3.00023         91.3077         6.44939 
        3.01596         90.0011         6.36625 
        3.03164         89.3338         6.28481 
        3.04738         88.4828         6.20456 
         3.0631         87.3645         6.12574 
        3.07883         86.2483         6.04828 
        3.09456         85.5366         5.97218 
        3.11026         84.7599          5.8975 
        3.12596         83.9169         5.82411 
        3.14163         82.7639         5.75214 
        3.15734          82.022         5.68122 
        3.17308         81.1195         5.61132 
        3.18879          80.278         5.54279 
        3.20447         79.3656          5.4755 
         3.2202         78.5762         5.40912 
         3.2359         77.7946         5.34396 
        3.25157         77.1915         5.28003 
        3.26729         76.1734         5.21695 
        3.28304         75.3162         5.15478 
        3.29877         74.7417         5.09371 
        3.31446         73.9802         5.03375 
        3.33014         73.0287         4.97482 
        3.34585         72.3047         4.91673 
        3.36158         71.5296         4.85949 
        3.37727         70.9161         4.80334 
        3.39294         70.2074         4.74813 
        3.40867         69.4999         4.69359 
        3.42439         68.6068         4.63993 
        3.44008         67.9065         4.58722 
        3.45578         67.0915         4.53528 
        3.47153         66.7939         4.48404 
        3.48724         66.1735         4.43368 
        3.50292         65.6336         4.38421 
        3.51859         64.8436         4.33551 
        3.53431         64.1683         4.28741 
        3.55007         63.6041         4.23992 
        3.56577         62.7385         4.19333 
        3.58146         62.1486         4.14747 
        3.59719         61.6608         4.10218 
        3.61292         61.1191         4.05759 
        3.62859         60.4923         4.01382 
        3.64429         59.7672         3.97062 
        3.66003         59.1509         3.92793 
        3.67578         58.5906         3.88587 
        3.69146         58.1531         3.84459 
        3.70712         57.5692         3.80399 
        3.72284         57.0643         3.76382 
        3.73853         56.4978          3.7243 
        3.75422         55.8336         3.68533 
        3.76993         55.4801         3.64689 
        3.78564          54.867         3.60901 
        3.80137         54.4216         3.57161 
        3.81707         53.8415         3.53481 
        3.83279         53.3602          3.4985 
        3.84853         52.8023         3.46265 
        3.86424         52.5296         3.42737 
        3.87992         51.9126         3.39263 
        3.89561         51.4137         3.35837 
        3.91134         50.9776         3.32452 
        3.92704         50.5693         3.29117 
        3.94273         50.0061         3.25831 
        3.95845         49.4433         3.22583 
        3.97418         49.0524          3.1938 
        3.98988         48.6226         3.16224 
        4.00554         48.2291          3.1312 
        4.02125         47.6931         3.10048 
        4.03698         47.3279         3.07013 
        4.05268         46.7323         3.04025 
        4.06839         46.3975         3.01075 
         4.0841         46.1308         2.98165 
        4.09983         45.5706         2.95289 
        4.11555         45.1582         2.92452 
        4.13124         44.7238          2.8966 
        4.14693         44.5765         2.86903 
        4.16266         44.0627         2.84175 
        4.17839          43.694         2.81484 
        4.19408         43.2316         2.78834 
        4.20977         42.8311         2.76217 
        4.22551         42.4129         2.73627 
        4.24123         42.1711         2.71073 
        4.25691         41.8038         2.68559 
        4.27259          41.364         2.66075 
        4.28831         41.0863         2.63618 
        4.30404         40.6589          2.6119 
        4.31974         40.3392         2.58798 
        4.33543         39.9475         2.56437 
        4.35116         39.6106         2.54099 
        4.36688         39.4364         2.51792 
        4.38255         38.8939         2.49522 
        4.39825         38.6361         2.47275 
        4.41398          38.309         2.45051 
         4.4297         37.8203         2.42857 
        4.44541         37.6489         2.40691 
        4.46111         37.3327         2.38552 
        4.47683         36.9559         2.36438 
        4.49251         36.6517         2.34353 
        4.50819          36.338         2.32294 
         4.5239         36.0753         2.30257 
        4.53962         35.7819         2.28242 
        4.55535         35.4134          2.2625 
        4.57106         35.1911         2.24285 
        4.58678         34.7801         2.22343 
         4.6025         34.5424         2.20423 
        4.61821         34.2819         2.18526 
        4.63391         33.9651         2.16654 
         4.6496         33.5923         2.14804 
        4.66532         33.3925         2.12974 
        4.68103         33.1506         2.11165 
        4.69673          32.793         2.09379 
        4.71241         32.6045         2.07616 
        4.72811         32.3482          2.0587 
        4.74384         32.0349         2.04142 
        4.75955         31.7854         2.02436 
        4.77525         31.5114          2.0075 
        4.79096         31.3028         1.99082 
        4.80669         31.0391         1.97432 
         4.8224         30.8465         1.95803 
        4.83809         30.5366         1.94193 
        4.85379          30.256         1.92601 
         4.8695         30.0414         1.91025 
        4.88521         29.8475         1.89468 
        4.90093         29.5099         1.87928 
        4.91663         29.2493         1.86406 
        4.93234         29.0667         1.84899 
        4.94807         28.8816         1.83408 
        4.96377         28.6109         1.81937 
        4.97943         28.4161         1.80484 
        4.99514         28.1918         1.79044 
        5.01086         27.9537         1.77618 
        5.02654         27.7399         1.76212 
        5.04227         27.4872         1.74816 
          5.058         27.3095         1.73435 
        5.07371         27.0891         1.72072 
        5.08942         26.9163         1.70723 
        5.10513         26.6519         1.69388 
        5.12084         26.4508         1.68067 
        5.13656         26.3122          1.6676 
        5.15225         26.0331         1.65469 
        5.16796         25.8987          1.6419 
        5.18369         25.5949         1.62924 
         5.1994         25.4639         1.61673 
        5.21509         25.2936         1.60436 
        5.23079         25.0144         1.59211 
        5.24649         24.8361         1.57999 
        5.26217         24.6307         1.56801 
        5.27788         24.4643         1.55614 
        5.29359         24.2872         1.54438 
        5.30933         24.1207         1.53274 
        5.32504         23.9191         1.52123 
        5.34073         23.7611         1.50985 
        5.35646         23.6107         1.49856 
        5.37218         23.3838         1.48739 
        5.38789         23.2156         1.47635 
        5.40357          23.042         1.46544 
        5.41929          22.889         1.45461 
        5.43502         22.7203         1.44389 
         5.4507         22.4861          1.4333 
        5.46639         22.3765         1.42282 
        5.48212         22.1891         1.41241 
        5.49786         22.0294          1.4021 
        5.51353         21.8472         1.39195 
        5.52921         21.6789         1.38188 
        5.54495         21.5365         1.37188 
        5.56066         21.4047           1.362 
        5.57637         21.2315         1.35221 
        5.59207         21.0588         1.34253 
        5.60778         20.8638         1.33293 
        5.62346         20.7314         1.32345 
        5.63916         20.5821         1.31405 
        5.65487         20.4889         1.30473 
         5.6706         20.3152         1.29549 
        5.68633         20.1487         1.28634 
        5.70203         20.0164          1.2773 
        5.71773          19.842         1.26835 
        5.73344          19.724         1.25947 
        5.74916         19.5797         1.25068 
        5.76486         19.4522         1.24198 
        5.78054         19.3085         1.23337 
        5.79626         19.1476         1.22482 
          5.812         19.0311         1.21635 
         5.8277         18.9052         1.20798 
        5.84339         18.7638         1.19969 
        5.85911         18.5938         1.19146 
        5.87484         18.4843         1.18331 
        5.89053         18.3599         1.17525 
        5.90623         18.2227         1.16726 
        5.92195         18.0974         1.15934 
        5.93767         18.0069         1.15149 
        5.95336         17.8614         1.14372 
        5.96905         17.7091         1.13603 
        5.98476         17.5653         1.12841 
        6.00048          17.478         1.12084 
        6.01617           17.34         1.11336 
        6.03185         17.2083         1.10596 
        6.04756         17.1069          1.0986 
        6.06331         16.9764          1.0913 
        6.07903         16.8546         1.08408 
        6.09473         16.7705         1.07693 
        6.11044         16.6229         1.06983 
        6.12616         16.5122         1.06281 
        6.14186         16.4261         1.05585 
        6.15755         16.2978         1.04895 
        6.17326         16.1478         1.04212 
        6.18898         16.0649         1.03534 
        6.20467         15.9445         1.02863 
        6.22036         15.8454         1.02198 
         6.2361         15.7153         1.01537 
         6.2518         15.5921         1.00883 
        6.26748         15.5145         1.00237 
        6.28319         15.4288        0.995939 
        6.29893         15.2978        0.989563 
        6.31463         15.2106        0.983252 
        6.33033         15.0976        0.976999 
        6.34604          15.012        0.970796 
        6.36177         14.9374        0.964641 
        6.37747         14.8135         0.95855 
