# k  (h/Mpc)    Pcb(k)  (Mpc/h)^3    Pcb_linear(k) (Mpc/h)^3   ShotnoiseSubtracted = true
      0.0200456         21172.8           21508 
      0.0350414         17310.5         16864.4 
      0.0492313         12953.8         13361.8 
      0.0637834         10229.7         10865.3 
      0.0800726         7726.44         8207.69 
       0.096163          6575.7         6455.87 
       0.111083         5605.31         5464.88 
       0.126058         4461.24         4542.87 
       0.142273         3836.69         3696.71 
       0.158546         3265.16         3149.16 
        0.17375         2963.53         2739.88 
       0.188953         2772.83         2355.46 
       0.204907         2386.68         2038.99 
       0.220756         2172.21         1802.14 
        0.23588         1955.15         1600.69 
         0.2514         1775.61         1418.34 
       0.267535         1706.83         1264.92 
       0.283568         1531.64         1136.64 
       0.299022         1466.11         1026.42 
       0.314451          1524.3         930.609 
       0.330372         1360.23          846.15 
       0.346141         1251.69         772.437 
       0.361624         1202.33         707.954 
       0.377134         1154.24         650.925 
       0.392932         1104.85         599.535 
       0.408854         1058.33         553.199 
       0.424564          1039.3         512.158 
       0.440253         969.313         475.422 
       0.455999         928.944         442.207 
       0.471626          939.89         412.333 
        0.48727         892.182         385.184 
       0.502856         858.538         360.582 
       0.518488         834.007         338.066 
       0.534347         800.994         317.178 
       0.550082         767.149         298.201 
       0.565732         755.089         280.872 
       0.581496         738.086          264.81 
       0.597222         724.961         250.038 
       0.612804         709.344         236.518 
       0.628434         680.273         223.965 
       0.644267         662.122         212.181 
       0.660051          654.74         201.281 
       0.675724         642.282         191.216 
       0.691403         621.767         181.839 
       0.707174         604.568         173.044 
       0.722871         596.155         164.869 
        0.73838         586.144         157.313 
       0.754018         572.794         150.176 
       0.769845         563.749         143.405 
        0.78569         550.952         137.046 
       0.801365         534.103         131.137 
       0.817031         528.685          125.58 
       0.832809         520.912         120.311 
       0.848511         511.025         115.369 
       0.864097         503.306         110.738 
       0.879701         501.278         106.359 
       0.895507         481.352         102.165 
       0.911279         476.633         98.2072 
        0.92691          468.75         94.4924 
       0.942635         463.773         90.9501 
       0.958396         450.103         87.5826 
       0.974128         443.727         84.3926 
       0.989692         430.934         81.3936 
        1.00528         427.992         78.5367 
        1.02113         419.028         75.7729 
        1.03692         413.237         73.1529 
        1.05264         406.072         70.6695 
        1.06832         398.002         68.3059 
        1.08405          396.11         66.0445 
        1.09979         387.108         63.8847 
        1.11537         377.171         61.8433 
        1.13105         373.812         59.8794 
        1.14679         366.888         57.9935 
        1.16256         363.435         56.1855 
        1.17828         357.988         54.4608 
        1.19395         349.213         52.8147 
         1.2097         346.486         51.2284 
        1.22537         339.047         49.7153 
          1.241         334.525          48.268 
        1.25666         329.528         46.8749 
        1.27241         324.876         45.5305 
        1.28819         318.004         44.2367 
        1.30392         316.665         42.9972 
        1.31957         308.702         41.8108 
        1.33529         305.016          40.665 
        1.35108         302.483         39.5577 
        1.36674         295.083         38.4997 
         1.3824         291.589         37.4815 
        1.39811         287.537         36.4968 
        1.41389          281.54         35.5439 
        1.42964         277.716         34.6267 
        1.44531         272.863         33.7464 
        1.46101         268.419          32.895 
        1.47667         265.987         32.0756 
        1.49229         261.704         31.2863 
        1.50793         257.748         30.5228 
        1.52367         253.612         29.7799 
        1.53953          248.65         29.0569 
        1.55526         246.535         28.3637 
        1.57092         243.201          27.696 
        1.58662         238.516         27.0483 
        1.60235         235.539         26.4201 
        1.61809          233.56         25.8116 
        1.63369         229.069         25.2277 
        1.64941         225.888         24.6578 
        1.66519         222.247         24.1034 
        1.68085         218.237         23.5701 
        1.69652         216.238         23.0528 
        1.71228         212.887         22.5481 
        1.72806         209.557         22.0581 
        1.74368         207.501         21.5877 
        1.75933         205.559         21.1301 
        1.77505         202.038         20.6836 
        1.79081         199.358         20.2493 
         1.8065         197.044         19.8293 
        1.82218         192.618         19.4216 
        1.83797         191.062         19.0226 
        1.85367         188.155         18.6371 
        1.86928         185.024         18.2646 
        1.88497         183.019         17.9002 
        1.90073         181.148         17.5445 
        1.91647         177.756         17.1987 
        1.93218         175.856         16.8631 
        1.94787         172.426         16.5368 
        1.96363         171.717          16.218 
        1.97935         169.374         15.9082 
        1.99499         167.176         15.6083 
        2.01064         163.409         15.3157 
         2.0264         162.459         15.0287 
        2.04216         160.118         14.7493 
        2.05781         157.548         14.4788 
        2.07353         156.825          14.214 
        2.08928         154.432         13.9554 
        2.10499         152.204         13.7038 
        2.12065         150.093         13.4593 
        2.13633         147.967         13.2205 
        2.15211         145.973         12.9859 
        2.16785         144.552         12.7577 
        2.18349         142.609         12.5365 
        2.19916           140.3           12.32 
        2.21489          139.05         12.1079 
        2.23063         137.302         11.9007 
         2.2463         135.158         11.6992 
        2.26194         133.435          11.503 
        2.27765         131.505         11.3102 
        2.29341         130.581         11.1214 
        2.30914         129.037         10.9372 
        2.32486         126.508         10.7574 
        2.34061         124.965         10.5813 
        2.35635         124.271         10.4093 
        2.37203         122.487         10.2417 
        2.38768         121.366         10.0782 
        2.40339         118.848         9.91759 
        2.41914         117.642         9.76016 
        2.43483         116.311         9.60671 
         2.4505         115.266         9.45681 
        2.46622         113.202         9.30961 
        2.48195         112.443         9.16553 
        2.49759         110.352         9.02527 
        2.51328         109.426         8.88758 
        2.52906         108.217          8.7519 
        2.54479         106.854         8.61955 
        2.56049         105.507         8.49021 
        2.57618         104.225         8.36363 
        2.59189         103.328         8.23944 
        2.60758         101.924         8.11798 
        2.62325         100.682         7.99911 
        2.63898         99.6689          7.8822 
        2.65468         98.1048         7.76788 
        2.67044         97.4827         7.65535 
        2.68618         95.8991          7.5453 
        2.70184          94.953         7.43785 
        2.71755         93.8589         7.33224 
        2.73329         92.4846         7.22851 
        2.74897          91.653         7.12713 
        2.76462         90.9632         7.02791 
        2.78034         89.6698         6.93018 
        2.79607         88.4552         6.83421 
        2.81179         87.7591         6.74016 
        2.82749         86.7314         6.64799 
        2.84321         85.5339         6.55744 
        2.85893         84.2695         6.46861 
        2.87462         83.6155         6.38157 
        2.89033         82.6203         6.29606 
        2.90605         81.6198         6.21204 
        2.92176         80.8477         6.12959 
        2.93747         79.8575         6.04869 
        2.95318         79.0004         5.96923 
        2.96891         78.1509         5.89116 
        2.98456         77.2886         5.81483 
        3.00023         76.4756         5.73975 
        3.01596         75.8121         5.66575 
        3.03164         75.0539         5.59328 
        3.04738         74.3182         5.52186 
         3.0631          73.328         5.45171 
        3.07883         72.7365         5.38278 
        3.09456         71.7998         5.31505 
        3.11026         71.0362         5.24859 
        3.12596         70.2451         5.18327 
        3.14163         69.5501         5.11922 
        3.15734         68.7524          5.0561 
        3.17308         68.0942         4.99389 
        3.18879         67.3485          4.9329 
        3.20447         66.6105         4.87302 
         3.2202         65.7188         4.81394 
         3.2359         65.1903         4.75595 
        3.25157         64.6138         4.69906 
        3.26729         63.8264         4.64292 
        3.28304         63.1713         4.58759 
        3.29877         62.4031         4.53323 
        3.31446         61.6943         4.47988 
        3.33014          61.067         4.42743 
        3.34585         60.6429         4.37573 
        3.36158         60.0445         4.32479 
        3.37727          59.374         4.27482 
        3.39294         58.8562         4.22568 
        3.40867         58.0621         4.17714 
        3.42439         57.5284         4.12939 
        3.44008         56.8665         4.08247 
        3.45578         56.3594         4.03626 
        3.47153         55.8587         3.99065 
        3.48724         55.4795         3.94583 
        3.50292          54.698          3.9018 
        3.51859         54.3004         3.85847 
        3.53431         53.6495         3.81566 
        3.55007         53.1878         3.77339 
        3.56577         52.4948         3.73193 
        3.58146         52.0985         3.69111 
        3.59719         51.6027         3.65081 
        3.61292         51.0736         3.61112 
        3.62859         50.4814         3.57217 
        3.64429          50.173         3.53373 
        3.66003         49.5762         3.49573 
        3.67578         48.9956          3.4583 
        3.69146         48.6351         3.42156 
        3.70712         48.2093         3.38543 
        3.72284         47.7395         3.34968 
        3.73853         47.3213          3.3145 
        3.75422         46.8502         3.27982 
        3.76993         46.4769         3.24561 
        3.78564         46.0249          3.2119 
        3.80137         45.4719         3.17861 
        3.81707         45.1186         3.14587 
        3.83279         44.7213         3.11356 
        3.84853         44.2365         3.08165 
        3.86424          43.792         3.05025 
        3.87992         43.3955         3.01933 
        3.89561         43.0741         2.98884 
        3.91134         42.5508         2.95871 
        3.92704         42.2762         2.92903 
        3.94273         41.6987         2.89979 
        3.95845         41.4237         2.87089 
        3.97418         41.0331         2.84238 
        3.98988         40.6783         2.81429 
        4.00554         40.2044         2.78666 
        4.02125         39.9747         2.75933 
        4.03698         39.5099         2.73231 
        4.05268         39.2047         2.70572 
        4.06839         38.8577         2.67947 
         4.0841         38.5447         2.65357 
        4.09983         38.1837         2.62798 
        4.11555         37.8092         2.60273 
        4.13124         37.4203         2.57788 
        4.14693         37.1617         2.55334 
        4.16266         36.8011         2.52906 
        4.17839         36.3499         2.50511 
        4.19408         36.0959         2.48153 
        4.20977         35.8251         2.45824 
        4.22551          35.446         2.43519 
        4.24123         35.1956         2.41246 
        4.25691         34.8792         2.39008 
        4.27259         34.5068         2.36798 
        4.28831         34.2266         2.34612 
        4.30404         33.8935         2.32451 
        4.31974         33.7253         2.30322 
        4.33543         33.3518          2.2822 
        4.35116         33.0206          2.2614 
        4.36688         32.7771         2.24087 
        4.38255          32.556         2.22067 
        4.39825         32.2959         2.20067 
        4.41398         32.0193         2.18088 
         4.4297         31.6902         2.16135 
        4.44541         31.4285         2.14207 
        4.46111         31.1667         2.12303 
        4.47683         30.9247         2.10422 
        4.49251         30.6636         2.08567 
        4.50819         30.3728         2.06735 
         4.5239         30.0833         2.04922 
        4.53962         29.8058         2.03128 
        4.55535         29.5684         2.01356 
        4.57106         29.3476         1.99607 
        4.58678         29.1036         1.97878 
         4.6025         28.8729         1.96169 
        4.61821         28.6195         1.94481 
        4.63391         28.3942         1.92815 
         4.6496         28.1191         1.91169 
        4.66532         27.9426          1.8954 
        4.68103         27.6321          1.8793 
        4.69673         27.4793         1.86341 
        4.71241         27.2163         1.84771 
        4.72811          27.021         1.83217 
        4.74384         26.8394         1.81679 
        4.75955         26.6455         1.80161 
        4.77525         26.3554         1.78661 
        4.79096         26.1087         1.77177 
        4.80669         25.8858         1.75708 
         4.8224         25.7526         1.74258 
        4.83809           25.52         1.72826 
        4.85379         25.3725         1.71409 
         4.8695          25.122         1.70006 
        4.88521         24.8416          1.6862 
        4.90093         24.7408          1.6725 
        4.91663         24.5642         1.65895 
        4.93234         24.2959         1.64554 
        4.94807         24.1059         1.63228 
        4.96377          23.917         1.61918 
        4.97943         23.7643         1.60625 
        4.99514         23.5604         1.59343 
        5.01086         23.4127         1.58074 
        5.02654         23.1945         1.56823 
        5.04227         23.0136         1.55581 
          5.058         22.8245         1.54352 
        5.07371         22.6688         1.53138 
        5.08942         22.4825         1.51938 
        5.10513         22.2847          1.5075 
        5.12084         22.1024         1.49574 
        5.13656         21.9558         1.48411 
        5.15225         21.7868         1.47263 
        5.16796         21.6029         1.46124 
        5.18369         21.3955         1.44997 
         5.1994         21.2582         1.43884 
        5.21509          21.043         1.42783 
        5.23079         20.9623         1.41692 
        5.24649         20.7579         1.40614 
        5.26217         20.6097         1.39548 
        5.27788         20.4919         1.38491 
        5.29359         20.2871         1.37445 
        5.30933         20.1592         1.36409 
        5.32504         20.0048         1.35384 
        5.34073         19.8408         1.34372 
        5.35646         19.7212         1.33367 
        5.37218         19.5767         1.32373 
        5.38789         19.4128         1.31391 
        5.40357         19.2564         1.30419 
        5.41929           19.13         1.29455 
        5.43502         18.9919         1.28501 
         5.4507         18.8139         1.27559 
        5.46639         18.6955         1.26626 
        5.48212         18.5749           1.257 
        5.49786          18.443         1.24783 
        5.51353         18.2437         1.23879 
        5.52921         18.1668         1.22983 
        5.54495         18.0302         1.22093 
        5.56066         17.8638         1.21213 
        5.57637         17.7182         1.20342 
        5.59207         17.6128          1.1948 
        5.60778         17.5048         1.18627 
        5.62346         17.3749         1.17783 
        5.63916         17.2302         1.16946 
        5.65487         17.0909         1.16117 
         5.6706         16.9856         1.15295 
        5.68633         16.8808         1.14481 
        5.70203         16.7358         1.13676 
        5.71773         16.6003         1.12879 
        5.73344         16.4914         1.12089 
        5.74916         16.3751         1.11306 
        5.76486         16.2897         1.10532 
        5.78054         16.1381         1.09766 
        5.79626          16.028         1.09005 
          5.812         15.9096         1.08251 
         5.8277         15.8039         1.07506 
        5.84339         15.6654         1.06768 
        5.85911         15.5724         1.06036 
        5.87484         15.4327         1.05311 
        5.89053         15.3595         1.04593 
        5.90623         15.2468         1.03883 
        5.92195         15.1172         1.03177 
        5.93767         15.0509         1.02479 
        5.95336         14.8941         1.01788 
        5.96905         14.8212         1.01103 
        5.98476         14.7038         1.00424 
        6.00048         14.6331        0.997515 
        6.01617         14.5411        0.990857 
        6.03185         14.4063        0.984267 
        6.04756         14.3367        0.977721 
        6.06331         14.2055        0.971221 
        6.07903         14.1313        0.964793 
        6.09473         13.9961        0.958429 
        6.11044         13.9435        0.952118 
        6.12616         13.8076        0.945864 
        6.14186         13.7234        0.939672 
        6.15755         13.6418        0.933536 
        6.17326          13.538         0.92745 
        6.18898         13.4111        0.921416 
        6.20467         13.3687        0.915445 
        6.22036         13.2699        0.909529 
         6.2361         13.1551        0.903648 
         6.2518         13.0818        0.897829 
        6.26748         12.9767        0.892074 
        6.28319         12.9006        0.886354 
        6.29893         12.8252        0.880679 
        6.31463          12.718        0.875063 
        6.33033         12.6603        0.869498 
        6.34604         12.5586        0.863977 
        6.36177         12.4847        0.858499 
        6.37747          12.399        0.853079 
