# k  (h/Mpc)    Pcb(k)  (Mpc/h)^3    Pcb_linear(k) (Mpc/h)^3   ShotnoiseSubtracted = true
      0.0200456         26170.9         26622.7 
      0.0350414         21449.9         20874.9 
      0.0492313           15920         16539.3 
      0.0637834         12561.1         13449.1 
      0.0800726         9482.74         10159.5 
       0.096163         8128.78          7991.1 
       0.111083         6911.07         6764.45 
       0.126058         5517.72         5623.19 
       0.142273         4783.09          4575.8 
       0.158546         4049.83         3898.04 
        0.17375         3708.23         3391.43 
       0.188953            3519          2915.6 
       0.204907         3036.33         2523.87 
       0.220756         2772.81          2230.7 
        0.23588         2498.67         1981.34 
         0.2514         2285.65         1755.63 
       0.267535         2187.83         1565.72 
       0.283568         1983.42         1406.94 
       0.299022         1895.52          1270.5 
       0.314451         1971.25         1151.91 
       0.330372         1796.57         1047.37 
       0.346141         1660.39         956.126 
       0.361624         1588.65         876.308 
       0.377134         1537.48         805.717 
       0.392932         1459.43         742.107 
       0.408854         1409.13         684.752 
       0.424564         1385.23         633.951 
       0.440253         1311.16          588.48 
       0.455999         1254.54         547.365 
       0.471626         1253.48         510.388 
        0.48727         1202.59         476.783 
       0.502856         1177.35          446.33 
       0.518488         1128.18         418.459 
       0.534347          1093.5         392.604 
       0.550082          1057.4         369.114 
       0.565732         1032.68         347.664 
       0.581496         1005.49         327.783 
       0.597222         999.447         309.499 
       0.612804         970.964         292.763 
       0.628434         936.108         277.225 
       0.644267         915.121         262.639 
       0.660051         900.015         249.146 
       0.675724         889.317         236.688 
       0.691403         851.428         225.081 
       0.707174          834.89         214.194 
       0.722871         828.525         204.076 
        0.73838         802.229         194.723 
       0.754018         795.738         185.889 
       0.769845         776.793         177.507 
        0.78569         757.447         169.637 
       0.801365         739.126         162.322 
       0.817031         727.552         155.444 
       0.832809         712.465         148.921 
       0.848511         693.702         142.804 
       0.864097           687.6         137.073 
       0.879701         689.262         131.651 
       0.895507          667.06         126.461 
       0.911279          661.27         121.561 
        0.92691         645.783         116.963 
       0.942635         633.794         112.578 
       0.958396         626.828          108.41 
       0.974128         611.408         104.461 
       0.989692         600.348         100.749 
        1.00528         590.567         97.2131 
        1.02113         578.406          93.792 
        1.03692         568.111          90.549 
        1.05264         562.255          87.475 
        1.06832         551.758         84.5493 
        1.08405         543.768         81.7502 
        1.09979         532.689         79.0768 
        1.11537         520.527         76.5499 
        1.13105         515.107         74.1189 
        1.14679         506.381         71.7846 
        1.16256         500.355         69.5466 
        1.17828         492.819         67.4118 
        1.19395         482.173         65.3742 
         1.2097         471.854         63.4108 
        1.22537         467.536         61.5377 
          1.241         457.308         59.7463 
        1.25666         449.991          58.022 
        1.27241         447.516         56.3579 
        1.28819         437.797         54.7564 
        1.30392         432.724         53.2221 
        1.31957         423.888         51.7536 
        1.33529         419.476         50.3353 
        1.35108         418.522         48.9647 
        1.36674         409.054         47.6551 
         1.3824         398.586         46.3947 
        1.39811         396.702         45.1759 
        1.41389         391.489         43.9964 
        1.42964         383.579         42.8611 
        1.44531         378.745         41.7715 
        1.46101         368.235         40.7176 
        1.47667         367.238         39.7033 
        1.49229         363.698         38.7263 
        1.50793         354.634         37.7813 
        1.52367         349.361         36.8617 
        1.53953         344.106         35.9667 
        1.55526         337.152         35.1087 
        1.57092         332.999         34.2822 
        1.58662         329.558         33.4805 
        1.60235          323.78         32.7029 
        1.61809           318.8         31.9497 
        1.63369         315.164          31.227 
        1.64941         310.228         30.5215 
        1.66519             307         29.8353 
        1.68085         299.624         29.1752 
        1.69652          296.18         28.5348 
        1.71228         292.045         27.9101 
        1.72806         288.608         27.3037 
        1.74368         285.588         26.7214 
        1.75933         282.133         26.1549 
        1.77505         277.104         25.6023 
        1.79081         273.103         25.0646 
         1.8065         270.901         24.5448 
        1.82218         264.496         24.0402 
        1.83797         262.061         23.5463 
        1.85367         257.478         23.0691 
        1.86928         253.705          22.608 
        1.88497         250.873          22.157 
        1.90073         248.093         21.7166 
        1.91647         244.422         21.2887 
        1.93218         240.732         20.8732 
        1.94787         236.678         20.4694 
        1.96363         235.201         20.0747 
        1.97935         229.571         19.6913 
        1.99499         228.311           19.32 
        2.01064         222.901         18.9578 
         2.0264         221.219         18.6026 
        2.04216         218.056         18.2568 
        2.05781         214.791         17.9219 
        2.07353         213.142         17.5942 
        2.08928         210.003          17.274 
        2.10499         207.711         16.9627 
        2.12065         204.643         16.6599 
        2.13633         201.849         16.3643 
        2.15211         198.616          16.074 
        2.16785         196.884         15.7916 
        2.18349         193.747         15.5177 
        2.19916         192.788         15.2497 
        2.21489         189.389         14.9872 
        2.23063         187.571         14.7307 
         2.2463         184.643         14.4814 
        2.26194         182.062         14.2384 
        2.27765         180.541         13.9998 
        2.29341         178.226         13.7661 
        2.30914         175.542         13.5382 
        2.32486         174.085         13.3155 
        2.34061         170.858         13.0976 
        2.35635         168.773         12.8846 
        2.37203         167.731         12.6772 
        2.38768         165.022         12.4748 
        2.40339         162.554          12.276 
        2.41914         161.275         12.0812 
        2.43483         159.594         11.8912 
         2.4505         157.095         11.7057 
        2.46622         155.267         11.5235 
        2.48195         153.558         11.3451 
        2.49759         151.759         11.1715 
        2.51328         149.019         11.0011 
        2.52906         147.652         10.8331 
        2.54479         145.972         10.6693 
        2.56049         144.679         10.5092 
        2.57618         142.562         10.3525 
        2.59189         141.442         10.1988 
        2.60758         140.738         10.0485 
        2.62325         138.149         9.90132 
        2.63898         136.001         9.75662 
        2.65468           134.9         9.61512 
        2.67044         133.997         9.47582 
        2.68618         131.547          9.3396 
        2.70184         130.598         9.20661 
        2.71755         128.793         9.07587 
        2.73329         127.306         8.94748 
        2.74897         125.374         8.82199 
        2.76462         124.272         8.69918 
        2.78034         122.791         8.57821 
        2.79607         121.784         8.45941 
        2.81179         120.122           8.343 
        2.82749          118.78         8.22891 
        2.84321          117.59         8.11683 
        2.85893         116.399         8.00687 
        2.87462         114.528         7.89913 
        2.89033         113.878         7.79328 
        2.90605         112.141         7.68928 
        2.92176         110.548         7.58723 
        2.93747         109.648         7.48709 
        2.95318         109.006         7.38873 
        2.96891         107.382          7.2921 
        2.98456         106.433         7.19762 
        3.00023         105.168         7.10468 
        3.01596         104.051         7.01309 
        3.03164         102.895         6.92338 
        3.04738         101.776         6.83498 
         3.0631         100.698         6.74815 
        3.07883         99.7096         6.66282 
        3.09456         98.6081         6.57899 
        3.11026         97.5474         6.49672 
        3.12596         96.1464         6.41587 
        3.14163         95.1082         6.33659 
        3.15734         94.3503         6.25846 
        3.17308         93.2346         6.18146 
        3.18879         92.4831         6.10596 
        3.20447         91.3013         6.03184 
         3.2202         90.3062         5.95872 
         3.2359          89.554         5.88694 
        3.25157          88.767         5.81651 
        3.26729         87.7125         5.74702 
        3.28304         87.1162         5.67854 
        3.29877          85.836         5.61125 
        3.31446         85.0194         5.54521 
        3.33014         84.6039         5.48029 
        3.34585         83.4769          5.4163 
        3.36158         82.4407         5.35324 
        3.37727           81.73         5.29139 
        3.39294         81.0503         5.23057 
        3.40867         80.0384         5.17048 
        3.42439         79.0565         5.11137 
        3.44008         78.2099          5.0533 
        3.45578         77.7802         4.99609 
        3.47153          76.955         4.93964 
        3.48724         76.1484         4.88416 
        3.50292         75.5958         4.82967 
        3.51859         74.7376         4.77603 
        3.53431         74.0732         4.72303 
        3.55007         73.3334         4.67072 
        3.56577         72.4524          4.6194 
        3.58146         71.8223         4.56887 
        3.59719         71.1824         4.51899 
        3.61292          70.589         4.46986 
        3.62859         69.7352         4.42165 
        3.64429         69.3122         4.37406 
        3.66003         68.6218         4.32703 
        3.67578         67.8058          4.2807 
        3.69146         67.2262         4.23522 
        3.70712         66.3746         4.19049 
        3.72284         66.0515         4.14624 
        3.73853         65.3084         4.10271 
        3.75422          64.797         4.05978 
        3.76993         64.1332         4.01743 
        3.78564         63.5856          3.9757 
        3.80137          63.034          3.9345 
        3.81707          62.393         3.89397 
        3.83279         61.7183         3.85397 
        3.84853         61.3857         3.81447 
        3.86424         60.6176         3.77561 
        3.87992         59.9061         3.73734 
        3.89561         59.7028          3.6996 
        3.91134         59.1302          3.6623 
        3.92704         58.5222         3.62557 
        3.94273         57.7994         3.58937 
        3.95845         57.2654          3.5536 
        3.97418         56.8439         3.51831 
        3.98988         56.4742         3.48354 
        4.00554         55.7794         3.44934 
        4.02125         55.3747         3.41551 
        4.03698         54.9128         3.38207 
        4.05268         54.4864         3.34916 
        4.06839         53.9307         3.31666 
         4.0841         53.4377          3.2846 
        4.09983         52.9401         3.25292 
        4.11555         52.6059         3.22167 
        4.13124         51.9981         3.19092 
        4.14693         51.5127         3.16054 
        4.16266          51.167         3.13049 
        4.17839         50.6723         3.10084 
        4.19408         50.2177         3.07165 
        4.20977         49.7867         3.04282 
        4.22551         49.3666         3.01429 
        4.24123         48.9744         2.98615 
        4.25691         48.3754         2.95846 
        4.27259         48.1273          2.9311 
        4.28831         47.6851         2.90403 
        4.30404         47.3793         2.87729 
        4.31974         46.9249         2.85093 
        4.33543         46.4089         2.82492 
        4.35116         46.1404         2.79917 
        4.36688         45.6038         2.77376 
        4.38255         45.2729         2.74875 
        4.39825         44.8551           2.724 
        4.41398         44.3851          2.6995 
         4.4297         44.1332         2.67533 
        4.44541         43.7215         2.65146 
        4.46111         43.1903          2.6279 
        4.47683         43.0029         2.60461 
        4.49251         42.6303         2.58165 
        4.50819         42.3429         2.55897 
         4.5239         42.0032         2.53653 
        4.53962         41.5426         2.51433 
        4.55535         41.2179         2.49239 
        4.57106         40.9802         2.47074 
        4.58678         40.5654         2.44934 
         4.6025         40.1582         2.42819 
        4.61821         39.9122         2.40729 
        4.63391          39.563         2.38667 
         4.6496         39.3182          2.3663 
        4.66532         38.9557         2.34613 
        4.68103         38.5783         2.32621 
        4.69673         38.3065         2.30653 
        4.71241         38.0002         2.28711 
        4.72811         37.6741         2.26787 
        4.74384         37.3631         2.24884 
        4.75955         37.0854         2.23004 
        4.77525         36.7275         2.21148 
        4.79096         36.4901          2.1931 
        4.80669         36.2074         2.17493 
         4.8224         35.8906         2.15697 
        4.83809         35.5967         2.13925 
        4.85379         35.3591         2.12171 
         4.8695         35.1168         2.10435 
        4.88521         34.7246         2.08719 
        4.90093         34.5152         2.07022 
        4.91663         34.2143         2.05346 
        4.93234         33.8999         2.03686 
        4.94807         33.7013         2.02044 
        4.96377         33.4324         2.00423 
        4.97943         33.1303         1.98822 
        4.99514         32.8842         1.97236 
        5.01086         32.6683         1.95665 
        5.02654          32.381         1.94116 
        5.04227         32.1099         1.92578 
          5.058         31.9041         1.91057 
        5.07371         31.6453         1.89555 
        5.08942         31.3717         1.88069 
        5.10513         31.1875         1.86599 
        5.12084          30.979         1.85143 
        5.13656         30.6834         1.83704 
        5.15225         30.4584         1.82282 
        5.16796         30.2238         1.80873 
        5.18369         29.9566         1.79478 
         5.1994         29.7811           1.781 
        5.21509         29.5175         1.76737 
        5.23079         29.2484         1.75387 
        5.24649         29.0687         1.74053 
        5.26217         28.8488         1.72733 
        5.27788         28.6146         1.71425 
        5.29359         28.4313          1.7013 
        5.30933         28.1612         1.68847 
        5.32504         27.9857         1.67579 
        5.34073         27.7473         1.66326 
        5.35646          27.562         1.65083 
        5.37218         27.3458         1.63852 
        5.38789         27.1492         1.62636 
        5.40357         26.9528         1.61433 
        5.41929          26.772          1.6024 
        5.43502         26.5034         1.59059 
         5.4507         26.3986         1.57893 
        5.46639         26.1272         1.56738 
        5.48212         25.9561         1.55592 
        5.49786         25.7552         1.54457 
        5.51353         25.5414         1.53338 
        5.52921         25.3895         1.52229 
        5.54495         25.2078         1.51127 
        5.56066         25.0519         1.50038 
        5.57637         24.7943          1.4896 
        5.59207         24.6489         1.47893 
        5.60778         24.4368         1.46837 
        5.62346         24.3056         1.45792 
        5.63916         24.0881         1.44756 
        5.65487         23.8993          1.4373 
         5.6706         23.8398         1.42712 
        5.68633         23.6004         1.41704 
        5.70203         23.4101         1.40708 
        5.71773         23.2426         1.39722 
        5.73344         23.0435         1.38744 
        5.74916          22.955         1.37775 
        5.76486         22.7675         1.36817 
        5.78054         22.5836         1.35869 
        5.79626         22.4486         1.34927 
          5.812         22.2776         1.33994 
         5.8277         22.1125         1.33072 
        5.84339         21.9323         1.32158 
        5.85911         21.7771         1.31252 
        5.87484         21.6892         1.30354 
        5.89053         21.5021         1.29466 
        5.90623          21.332         1.28586 
        5.92195         21.1437         1.27713 
        5.93767         21.0012         1.26848 
        5.95336         20.8216         1.25993 
        5.96905         20.7203         1.25146 
        5.98476          20.558         1.24306 
        6.00048         20.4678         1.23473 
        6.01617         20.3017         1.22649 
        6.03185         20.1856         1.21833 
        6.04756           20.04         1.21023 
        6.06331         19.9123         1.20218 
        6.07903         19.7659         1.19422 
        6.09473         19.5851         1.18635 
        6.11044         19.4797         1.17854 
        6.12616         19.3664         1.17079 
        6.14186         19.2261         1.16313 
        6.15755         19.1076         1.15553 
        6.17326         18.9309           1.148 
        6.18898         18.8126         1.14053 
        6.20467         18.7022         1.13314 
        6.22036         18.5275         1.12582 
         6.2361         18.4503         1.11854 
         6.2518         18.3025         1.11134 
        6.26748         18.1668         1.10421 
        6.28319          18.077         1.09713 
        6.29893         17.9634         1.09011 
        6.31463         17.8514         1.08316 
        6.33033         17.6958         1.07627 
        6.34604         17.6247         1.06943 
        6.36177         17.4714         1.06265 
        6.37747         17.3447         1.05594 
