# k  (h/Mpc)    Pcb(k)  (Mpc/h)^3    Pcb_linear(k) (Mpc/h)^3   ShotnoiseSubtracted = true
      0.0200456         19804.1         20109.8 
      0.0350414         16179.5         15768.2 
      0.0492313         12136.2         12493.2 
      0.0637834         9587.39           10159 
      0.0800726         7242.73         7674.14 
       0.096163         6150.54          6036.2 
       0.111083         5246.14         5109.63 
       0.126058         4173.16         4247.56 
       0.142273         3579.77          3456.4 
       0.158546         3051.11         2944.45 
        0.17375         2762.75         2561.77 
       0.188953         2574.38         2202.34 
       0.204907          2213.3         1906.44 
       0.220756         2013.28         1684.99 
        0.23588          1811.5         1496.64 
         0.2514         1641.21         1326.14 
       0.267535         1579.77         1182.69 
       0.283568          1413.4         1062.75 
       0.299022         1353.41         959.694 
       0.314451         1405.35         870.115 
       0.330372         1246.22         791.146 
       0.346141         1147.07         722.224 
       0.361624         1102.19         661.933 
       0.377134         1056.04         608.611 
       0.392932         1012.98         560.562 
       0.408854         968.343         517.238 
       0.424564         949.978         478.865 
       0.440253          882.74         444.517 
       0.455999          845.82         413.461 
       0.471626         857.928         385.529 
        0.48727         812.801         360.145 
       0.502856         777.567         337.142 
       0.518488          758.69         316.089 
       0.534347         725.443          296.56 
       0.550082         694.408         278.816 
       0.565732          684.93         262.613 
       0.581496         669.957         247.596 
       0.597222         655.684         233.785 
       0.612804          642.41         221.143 
       0.628434         615.504         209.406 
       0.644267         598.182         198.388 
       0.660051         591.226         188.196 
       0.675724         579.413         178.786 
       0.691403         562.903         170.019 
       0.707174         545.531         161.795 
       0.722871         536.709         154.152 
        0.73838         529.434         147.087 
       0.754018         515.276         140.414 
       0.769845         508.028         134.083 
        0.78569         497.034         128.138 
       0.801365         481.195         122.612 
       0.817031         476.529         117.417 
       0.832809         470.296          112.49 
       0.848511         460.764         107.869 
       0.864097         452.379          103.54 
       0.879701         449.115          99.445 
       0.895507         431.735         95.5239 
       0.911279         426.669         91.8232 
        0.92691         420.792         88.3499 
       0.942635         416.969         85.0378 
       0.958396         402.954         81.8893 
       0.974128         397.848         78.9066 
       0.989692         385.067         76.1026 
        1.00528         383.373         73.4314 
        1.02113         375.263         70.8472 
        1.03692         369.846         68.3976 
        1.05264         363.038         66.0756 
        1.06832         356.981         63.8656 
        1.08405         354.269         61.7513 
        1.09979         347.002         59.7319 
        1.11537         337.229         57.8232 
        1.13105         334.487         55.9869 
        1.14679         328.505         54.2236 
        1.16256         325.119         52.5331 
        1.17828         320.263         50.9206 
        1.19395         312.158         49.3814 
         1.2097          310.74         47.8983 
        1.22537         303.728         46.4835 
          1.241         299.397         45.1303 
        1.25666         295.044         43.8278 
        1.27241         290.444         42.5708 
        1.28819         284.869         41.3611 
        1.30392         283.472         40.2021 
        1.31957         275.862         39.0929 
        1.33529         272.938         38.0215 
        1.35108         269.956         36.9862 
        1.36674         263.833          35.997 
         1.3824         261.454          35.045 
        1.39811         257.862         34.1243 
        1.41389         251.313         33.2333 
        1.42964         248.533         32.3758 
        1.44531         244.669         31.5527 
        1.46101         241.021         30.7566 
        1.47667         237.843         29.9905 
        1.49229         234.286         29.2525 
        1.50793         231.179         28.5387 
        1.52367         227.864         27.8441 
        1.53953         222.383          27.168 
        1.55526         221.736         26.5199 
        1.57092         218.932         25.8956 
        1.58662          214.18           25.29 
        1.60235         211.935         24.7027 
        1.61809          209.49         24.1337 
        1.63369         205.414         23.5878 
        1.64941         202.727         23.0549 
        1.66519         199.542         22.5366 
        1.68085         196.071         22.0379 
        1.69652         194.461         21.5542 
        1.71228         191.515         21.0823 
        1.72806         188.365         20.6242 
        1.74368         186.961         20.1844 
        1.75933         185.091         19.7565 
        1.77505         181.878         19.3391 
        1.79081         178.749          18.933 
         1.8065         176.769         18.5403 
        1.82218         173.091         18.1591 
        1.83797         171.786         17.7861 
        1.85367         169.479         17.4256 
        1.86928         166.298         17.0773 
        1.88497         164.887         16.7366 
        1.90073         162.953          16.404 
        1.91647         159.764         16.0807 
        1.93218         158.386         15.7669 
        1.94787          155.28         15.4619 
        1.96363         155.001         15.1637 
        1.97935         152.641         14.8741 
        1.99499         150.749         14.5937 
        2.01064         147.114         14.3201 
         2.0264         146.311         14.0518 
        2.04216         144.478         13.7905 
        2.05781         141.469         13.5376 
        2.07353         140.808           13.29 
        2.08928         138.883         13.0482 
        2.10499         137.171          12.813 
        2.12065         135.396         12.5843 
        2.13633          133.36         12.3611 
        2.15211         131.453         12.1418 
        2.16785         129.972         11.9284 
        2.18349         128.227         11.7215 
        2.19916         126.606         11.5191 
        2.21489         125.313         11.3208 
        2.23063         123.443         11.1271 
         2.2463           121.8         10.9387 
        2.26194         120.484         10.7552 
        2.27765         118.412          10.575 
        2.29341         117.748         10.3984 
        2.30914         116.508         10.2263 
        2.32486          113.88         10.0581 
        2.34061          112.96         9.89344 
        2.35635         112.135         9.73262 
        2.37203         110.102         9.57593 
        2.38768         109.173         9.42302 
        2.40339         107.254          9.2729 
        2.41914         106.309          9.1257 
        2.43483          105.09         8.98222 
         2.4505         103.922         8.84207 
        2.46622         102.276         8.70443 
        2.48195         101.328         8.56972 
        2.49759         99.7015         8.43857 
        2.51328         98.9455         8.30984 
        2.52906         97.5901         8.18297 
        2.54479         96.4517         8.05924 
        2.56049         95.0705          7.9383 
        2.57618         93.8522         7.81995 
        2.59189         93.4029         7.70383 
        2.60758         91.8808         7.59026 
        2.62325         91.1889         7.47912 
        2.63898         90.1799         7.36982 
        2.65468          88.706         7.26293 
        2.67044         87.8117         7.15771 
        2.68618         86.7375         7.05481 
        2.70184         85.6664         6.95435 
        2.71755         84.8881          6.8556 
        2.73329         83.4331         6.75862 
        2.74897         82.8194         6.66382 
        2.76462         81.9557         6.57106 
        2.78034          80.798         6.47968 
        2.79607         79.8527         6.38995 
        2.81179         79.2717         6.30201 
        2.82749          78.064         6.21583 
        2.84321         77.1451         6.13117 
        2.85893          76.133         6.04811 
        2.87462         75.4156         5.96673 
        2.89033         74.5108         5.88678 
        2.90605         73.8297         5.80822 
        2.92176         72.9769         5.73113 
        2.93747         72.1735         5.65549 
        2.95318         71.2946         5.58119 
        2.96891         70.6292          5.5082 
        2.98456         69.9049         5.43684 
        3.00023         69.0256         5.36663 
        3.01596         68.5095         5.29745 
        3.03164         67.6457         5.22968 
        3.04738         67.0749         5.16291 
         3.0631         66.1714         5.09732 
        3.07883         65.5909         5.03287 
        3.09456         64.7377         4.96954 
        3.11026         64.0104          4.9074 
        3.12596         63.3634         4.84633 
        3.14163         62.7119         4.78644 
        3.15734          61.956         4.72742 
        3.17308           61.41         4.66926 
        3.18879         60.5407         4.61224 
        3.20447         60.0817         4.55624 
         3.2202         59.2946         4.50101 
         3.2359         58.7674         4.44679 
        3.25157         58.1981         4.39359 
        3.26729          57.597          4.3411 
        3.28304         56.8824         4.28937 
        3.29877          56.262         4.23855 
        3.31446         55.6897         4.18866 
        3.33014         55.1695         4.13962 
        3.34585         54.7246         4.09129 
        3.36158         54.2186         4.04366 
        3.37727         53.5465         3.99693 
        3.39294         53.1474         3.95099 
        3.40867          52.554          3.9056 
        3.42439         51.9735         3.86095 
        3.44008         51.3944         3.81709 
        3.45578         51.0156         3.77388 
        3.47153         50.5461         3.73124 
        3.48724         50.0095         3.68933 
        3.50292          49.449         3.64816 
        3.51859         49.0229         3.60765 
        3.53431         48.3241         3.56762 
        3.55007         47.8553          3.5281 
        3.56577         47.3553         3.48933 
        3.58146         46.8895         3.45117 
        3.59719         46.4149         3.41349 
        3.61292         45.9185         3.37638 
        3.62859         45.5751         3.33996 
        3.64429         45.2339         3.30401 
        3.66003         44.7715         3.26849 
        3.67578         44.2466         3.23349 
        3.69146         43.8645         3.19914 
        3.70712         43.5466         3.16535 
        3.72284         43.1406         3.13193 
        3.73853         42.6577         3.09904 
        3.75422         42.2336         3.06662 
        3.76993         41.8506         3.03463 
        3.78564         41.5667         3.00311 
        3.80137         41.0232         2.97199 
        3.81707         40.6456         2.94137 
        3.83279         40.2411         2.91116 
        3.84853         39.6983         2.88132 
        3.86424         39.4678         2.85196 
        3.87992         39.1504         2.82306 
        3.89561         38.8131         2.79455 
        3.91134         38.3796         2.76638 
        3.92704         38.0065         2.73863 
        3.94273         37.6539         2.71128 
        3.95845         37.3258         2.68427 
        3.97418          36.948         2.65761 
        3.98988         36.7217         2.63135 
        4.00554         36.2486         2.60552 
        4.02125         35.9944         2.57996 
        4.03698         35.6641          2.5547 
        4.05268         35.4283         2.52984 
        4.06839         34.9936         2.50529 
         4.0841         34.7258         2.48107 
        4.09983         34.3828         2.45714 
        4.11555         34.1013         2.43354 
        4.13124         33.7159         2.41031 
        4.14693         33.4549         2.38736 
        4.16266         33.1028         2.36466 
        4.17839         32.7811         2.34227 
        4.19408         32.5653         2.32022 
        4.20977         32.2004         2.29844 
        4.22551         31.9806         2.27689 
        4.24123         31.7241         2.25564 
        4.25691         31.4217         2.23472 
        4.27259         31.1475         2.21405 
        4.28831         30.9119         2.19361 
        4.30404         30.6444          2.1734 
        4.31974         30.3736          2.1535 
        4.33543         30.0713         2.13385 
        4.35116         29.7616          2.1144 
        4.36688         29.5753          2.0952 
        4.38255          29.383         2.07631 
        4.39825         29.0155         2.05761 
        4.41398         28.7894         2.03911 
         4.4297         28.5818         2.02085 
        4.44541         28.3845         2.00282 
        4.46111         28.0963         1.98503 
        4.47683         27.8735         1.96743 
        4.49251         27.6315         1.95009 
        4.50819         27.4026         1.93296 
         4.5239         27.0936         1.91601 
        4.53962         26.9249         1.89924 
        4.55535         26.6126         1.88266 
        4.57106         26.4167         1.86631 
        4.58678         26.2885         1.85015 
         4.6025         26.0563         1.83417 
        4.61821          25.815         1.81839 
        4.63391         25.5485         1.80281 
         4.6496         25.4169         1.78742 
        4.66532         25.2189         1.77219 
        4.68103         24.9534         1.75714 
        4.69673         24.7292         1.74228 
        4.71241         24.5509          1.7276 
        4.72811         24.3621         1.71307 
        4.74384         24.1969         1.69869 
        4.75955         23.9914          1.6845 
        4.77525         23.7972         1.67048 
        4.79096         23.5731         1.65659 
        4.80669         23.4046         1.64286 
         4.8224         23.2247          1.6293 
        4.83809         23.0202         1.61591 
        4.85379          22.844         1.60266 
         4.8695         22.6619         1.58955 
        4.88521         22.4335         1.57659 
        4.90093         22.3391         1.56377 
        4.91663         22.1161         1.55111 
        4.93234         21.8581         1.53858 
        4.94807         21.7398         1.52617 
        4.96377         21.6174         1.51392 
        4.97943         21.4152         1.50184 
        4.99514         21.2541         1.48985 
        5.01086         21.1445         1.47799 
        5.02654         20.9047         1.46628 
        5.04227         20.7526         1.45467 
          5.058         20.5792         1.44318 
        5.07371         20.3855         1.43183 
        5.08942         20.2807         1.42061 
        5.10513          20.122          1.4095 
        5.12084         19.9474         1.39851 
        5.13656         19.7866         1.38764 
        5.15225         19.6366          1.3769 
        5.16796         19.4876         1.36625 
        5.18369         19.2856         1.35571 
         5.1994         19.1753          1.3453 
        5.21509         19.0182         1.33501 
        5.23079         18.8935         1.32482 
        5.24649         18.7355         1.31473 
        5.26217         18.6097         1.30477 
        5.27788         18.4733         1.29488 
        5.29359         18.3388          1.2851 
        5.30933         18.1708         1.27541 
        5.32504         18.0275         1.26584 
        5.34073         17.8977         1.25637 
        5.35646          17.775         1.24698 
        5.37218         17.6127         1.23768 
        5.38789         17.4763         1.22849 
        5.40357          17.404         1.21941 
        5.41929         17.2304          1.2104 
        5.43502         17.1037         1.20148 
         5.4507          16.956         1.19267 
        5.46639         16.8528         1.18395 
        5.48212         16.7231         1.17529 
        5.49786         16.5963         1.16671 
        5.51353         16.5102         1.15826 
        5.52921         16.3416         1.14988 
        5.54495         16.2523         1.14156 
        5.56066         16.0891         1.13334 
        5.57637         15.9939         1.12519 
        5.59207         15.8903         1.11714 
        5.60778         15.8024         1.10915 
        5.62346         15.6483         1.10126 
        5.63916         15.5159         1.09344 
        5.65487         15.3961         1.08569 
         5.6706         15.3019           1.078 
        5.68633         15.2333         1.07039 
        5.70203          15.081         1.06286 
        5.71773         14.9965         1.05541 
        5.73344         14.8988         1.04803 
        5.74916         14.7891         1.04071 
        5.76486         14.6521         1.03347 
        5.78054         14.5677         1.02631 
        5.79626         14.4526         1.01919 
          5.812         14.3625         1.01214 
         5.8277         14.2616         1.00518 
        5.84339         14.1305        0.998279 
        5.85911         14.0596        0.991431 
        5.87484         13.9483        0.984648 
        5.89053          13.854        0.977943 
        5.90623          13.752        0.971297 
        5.92195         13.6783        0.964701 
        5.93767         13.5426         0.95817 
        5.95336         13.4621         0.95171 
        5.96905         13.3407        0.945312 
        5.98476         13.3111        0.938963 
        6.00048         13.1928        0.932671 
        6.01617         13.0912        0.926445 
        6.03185         12.9991        0.920284 
        6.04756         12.9269        0.914164 
        6.06331         12.8376        0.908086 
        6.07903         12.7275        0.902076 
        6.09473         12.6418        0.896126 
        6.11044         12.5388        0.890225 
        6.12616         12.4799        0.884377 
        6.14186         12.3757        0.878588 
        6.15755         12.3082        0.872851 
        6.17326         12.2297        0.867161 
        6.18898         12.0997        0.861518 
        6.20467         12.0413        0.855937 
        6.22036         11.9685        0.850404 
         6.2361         11.8529        0.844906 
         6.2518         11.8003        0.839466 
        6.26748         11.7356        0.834085 
        6.28319         11.6478        0.828736 
        6.29893         11.5487         0.82343 
        6.31463         11.5024        0.818179 
        6.33033         11.3952        0.812976 
        6.34604          11.342        0.807814 
        6.36177         11.2573        0.802692 
        6.37747         11.1782        0.797624 
