# k  (h/Mpc)    Pcb(k)  (Mpc/h)^3    Pcb_linear(k) (Mpc/h)^3   ShotnoiseSubtracted = true
      0.0200456         10314.4         10501.2 
      0.0350414         7979.03         8234.01 
      0.0492313         6429.02         6523.87 
      0.0637834         5386.42         5304.94 
      0.0800726         4094.71         4007.38 
       0.096163         3057.21         3152.06 
       0.111083         2548.69         2668.21 
       0.126058          2243.4         2218.04 
       0.142273            1881          1804.9 
       0.158546         1656.01         1537.57 
        0.17375         1357.85         1337.74 
       0.188953         1274.67         1150.05 
       0.204907         1187.79         995.529 
       0.220756         1029.83         879.889 
        0.23588         912.688         781.533 
         0.2514         793.532           692.5 
       0.267535         770.458         617.592 
       0.283568         702.966          554.96 
       0.299022         657.474         501.144 
       0.314451          617.79         454.367 
       0.330372         570.216          413.13 
       0.346141         521.431          377.14 
       0.361624         499.256         345.656 
       0.377134         465.955         317.812 
       0.392932         443.323         292.721 
       0.408854          425.58         270.098 
       0.424564         405.352         250.059 
       0.440253         391.664         232.123 
       0.455999         369.483         215.906 
       0.471626         343.521          201.32 
        0.48727         335.266         188.065 
       0.502856         324.248         176.053 
       0.518488         320.483         165.059 
       0.534347         301.418         154.861 
       0.550082         284.001         145.596 
       0.565732          280.74         137.135 
       0.581496         266.088         129.292 
       0.597222         260.418          122.08 
       0.612804         251.067         115.479 
       0.628434         242.013          109.35 
       0.644267         234.264         103.597 
       0.660051         230.925         98.2746 
       0.675724         226.813         93.3607 
       0.691403         220.096         88.7824 
       0.707174         210.751          84.488 
       0.722871         208.955         80.4969 
        0.73838         204.446         76.8077 
       0.754018         198.354          73.323 
       0.769845         192.565         70.0171 
        0.78569         190.695         66.9125 
       0.801365         185.088          64.027 
       0.817031         179.059         61.3141 
       0.832809         176.042         58.7414 
       0.848511         172.074         56.3283 
       0.864097         169.132         54.0677 
       0.879701         165.468         51.9294 
       0.895507         161.437         49.8818 
       0.911279         158.095         47.9493 
        0.92691         156.416         46.1356 
       0.942635          153.06         44.4061 
       0.958396           152.6         42.7619 
       0.974128         148.153         41.2044 
       0.989692         144.257         39.7402 
        1.00528         141.818         38.3453 
        1.02113         140.981         36.9959 
        1.03692         135.596         35.7167 
        1.05264         134.463         34.5042 
        1.06832          131.74         33.3501 
        1.08405         129.841          32.246 
        1.09979          129.22         31.1915 
        1.11537         124.888         30.1948 
        1.13105         124.423         29.2359 
        1.14679         123.203         28.3151 
        1.16256          121.24         27.4324 
        1.17828         118.041         26.5903 
        1.19395         117.061         25.7866 
         1.2097         114.519         25.0121 
        1.22537         113.974         24.2733 
          1.241         111.349         23.5667 
        1.25666         109.275         22.8865 
        1.27241         108.072         22.2301 
        1.28819         106.294         21.5984 
        1.30392         104.998         20.9932 
        1.31957          103.13          20.414 
        1.33529          101.37         19.8545 
        1.35108         100.187         19.3139 
        1.36674         99.0448         18.7973 
         1.3824         97.2674         18.3002 
        1.39811         96.1456         17.8195 
        1.41389         94.6861         17.3542 
        1.42964         93.5077         16.9064 
        1.44531         91.2502         16.4766 
        1.46101         90.4736         16.0609 
        1.47667         89.7026         15.6608 
        1.49229         87.9578         15.2754 
        1.50793         87.1643         14.9027 
        1.52367          86.122           14.54 
        1.53953         84.6615         14.1869 
        1.55526         83.7563         13.8485 
        1.57092         83.1744         13.5225 
        1.58662         81.5869         13.2062 
        1.60235         80.8636         12.8995 
        1.61809         79.6843         12.6024 
        1.63369         78.4948         12.3174 
        1.64941         77.6607         12.0391 
        1.66519         76.2223         11.7684 
        1.68085         75.4487          11.508 
        1.69652         74.1252         11.2554 
        1.71228          73.713          11.009 
        1.72806          72.719         10.7698 
        1.74368         71.8102         10.5401 
        1.75933         70.9634         10.3167 
        1.77505          70.168         10.0987 
        1.79081         69.0041         9.88664 
         1.8065         68.4419         9.68159 
        1.82218         67.2436         9.48255 
        1.83797         66.8409         9.28774 
        1.85367         65.8835          9.0995 
        1.86928         65.5339         8.91762 
        1.88497         64.2111         8.73972 
        1.90073         63.3798         8.56603 
        1.91647         63.0623         8.39722 
        1.93218         62.0254         8.23333 
        1.94787         61.2901         8.07406 
        1.96363         60.3021         7.91838 
        1.97935         60.0792         7.76713 
        1.99499         59.0371          7.6207 
        2.01064         58.8197         7.47783 
         2.0264         57.4566         7.33773 
        2.04216         56.8761          7.2013 
        2.05781         56.2649          7.0692 
        2.07353         55.6442         6.93995 
        2.08928         54.8741         6.81366 
        2.10499         54.5182         6.69085 
        2.12065         53.8568         6.57144 
        2.13633         53.4407         6.45484 
        2.15211         52.9641         6.34033 
        2.16785         52.0194         6.22892 
        2.18349         51.7499         6.12088 
        2.19916         51.0324         6.01519 
        2.21489         50.6401         5.91164 
        2.23063         49.8599         5.81047 
         2.2463         49.4419         5.71212 
        2.26194         48.5176         5.61629 
        2.27765         48.0719         5.52218 
        2.29341         47.5774         5.42998 
        2.30914         46.8824         5.34007 
        2.32486         46.2844         5.25226 
        2.34061         45.8742         5.16627 
        2.35635          45.494         5.08229 
        2.37203         44.7571         5.00047 
        2.38768         44.4365         4.92062 
        2.40339         43.9768         4.84223 
        2.41914         43.6211         4.76537 
        2.43483         43.0044         4.69044 
         2.4505         42.5305         4.61726 
        2.46622         42.1677         4.54538 
        2.48195         41.6542         4.47504 
        2.49759          41.144         4.40656 
        2.51328         40.5772         4.33933 
        2.52906         40.3229         4.27308 
        2.54479         39.7164         4.20847 
        2.56049         39.2301         4.14532 
        2.57618         38.8367         4.08351 
        2.59189         38.4328         4.02288 
        2.60758         38.0758         3.96357 
        2.62325         37.6685         3.90554 
        2.63898         37.2738         3.84846 
        2.65468         36.7406         3.79264 
        2.67044         36.4324          3.7377 
        2.68618         36.0755         3.68397 
        2.70184         35.6581         3.63151 
        2.71755         35.4098         3.57994 
        2.73329         34.8582          3.5293 
        2.74897         34.5416          3.4798 
        2.76462         34.0578         3.43136 
        2.78034         33.8325         3.38364 
        2.79607         33.4451         3.33678 
        2.81179         33.1405         3.29086 
        2.82749         32.8271         3.24586 
        2.84321         32.4076         3.20165 
        2.85893         32.0372         3.15828 
        2.87462         31.6867         3.11578 
        2.89033         31.4396         3.07403 
        2.90605         31.1271         3.03301 
        2.92176         30.9447         2.99275 
        2.93747         30.4885         2.95325 
        2.95318         30.0934         2.91446 
        2.96891         29.8183         2.87634 
        2.98456         29.5389         2.83907 
        3.00023         29.2315         2.80241 
        3.01596         28.8803         2.76629 
        3.03164         28.7236          2.7309 
        3.04738          28.464         2.69603 
         3.0631         28.1082         2.66178 
        3.07883         27.8207         2.62812 
        3.09456         27.4978         2.59505 
        3.11026         27.2668         2.56261 
        3.12596          27.012         2.53071 
        3.14163         26.7098         2.49944 
        3.15734         26.4701         2.46862 
        3.17308         26.1456         2.43825 
        3.18879         25.8979         2.40847 
        3.20447         25.6814         2.37923 
         3.2202         25.4062         2.35039 
         3.2359         25.1474         2.32208 
        3.25157         25.0342          2.2943 
        3.26729         24.7963         2.26689 
        3.28304         24.4237         2.23988 
        3.29877         24.0973         2.21334 
        3.31446          23.977         2.18728 
        3.33014         23.7623         2.16168 
        3.34585         23.5436         2.13644 
        3.36158         23.2546         2.11156 
        3.37727         23.0286         2.08717 
        3.39294         22.8695         2.06317 
        3.40867         22.6399         2.03947 
        3.42439         22.3794         2.01616 
        3.44008         22.1938         1.99325 
        3.45578         22.0765         1.97069 
        3.47153         21.7078         1.94842 
        3.48724         21.5167         1.92654 
        3.50292         21.3846         1.90504 
        3.51859         21.1356         1.88388 
        3.53431         20.9348         1.86298 
        3.55007         20.7328         1.84235 
        3.56577         20.5242          1.8221 
        3.58146          20.406         1.80217 
        3.59719          20.152          1.7825 
        3.61292         19.9353         1.76312 
        3.62859         19.7628          1.7441 
        3.64429         19.6126         1.72533 
        3.66003         19.4545         1.70678 
        3.67578         19.2266          1.6885 
        3.69146         19.0489         1.67057 
        3.70712         18.8747         1.65292 
        3.72284         18.7747         1.63547 
        3.73853         18.4983          1.6183 
        3.75422         18.3513         1.60136 
        3.76993         18.2246         1.58466 
        3.78564         18.0033          1.5682 
        3.80137         17.8718         1.55195 
        3.81707         17.6867         1.53596 
        3.83279         17.5574         1.52018 
        3.84853         17.3641          1.5046 
        3.86424         17.2335         1.48927 
        3.87992         17.0701         1.47418 
        3.89561         16.8946         1.45929 
        3.91134         16.7299         1.44458 
        3.92704         16.6426         1.43009 
        3.94273         16.4686         1.41581 
        3.95845         16.3002          1.4017 
        3.97418         16.1741         1.38778 
        3.98988         16.0184         1.37407 
        4.00554         15.8803         1.36058 
        4.02125         15.7357         1.34723 
        4.03698         15.6104         1.33404 
        4.05268         15.4393         1.32106 
        4.06839         15.3339         1.30824 
         4.0841          15.197          1.2956 
        4.09983         15.0309          1.2831 
        4.11555         14.9089         1.27077 
        4.13124         14.8016         1.25864 
        4.14693         14.6234         1.24666 
        4.16266         14.5405         1.23481 
        4.17839         14.4222         1.22311 
        4.19408         14.2397          1.2116 
        4.20977         14.1651         1.20023 
        4.22551         14.0593         1.18897 
        4.24123         13.9282         1.17788 
        4.25691         13.7859         1.16695 
        4.27259         13.6796         1.15616 
        4.28831         13.5256         1.14548 
        4.30404         13.4744         1.13493 
        4.31974         13.3097         1.12454 
        4.33543         13.1999         1.11428 
        4.35116         13.1161         1.10412 
        4.36688         13.0173          1.0941 
        4.38255         12.8835         1.08423 
        4.39825         12.7559         1.07447 
        4.41398         12.7091         1.06481 
         4.4297         12.5647         1.05527 
        4.44541         12.4843         1.04586 
        4.46111         12.3593         1.03656 
        4.47683         12.2519         1.02738 
        4.49251         12.1666         1.01832 
        4.50819         12.0592         1.00937 
         4.5239         11.9918         1.00052 
        4.53962         11.8411        0.991767 
        4.55535         11.7558        0.983112 
        4.57106         11.6594        0.974572 
        4.58678         11.5495        0.966132 
         4.6025         11.4482         0.95779 
        4.61821         11.3903        0.949547 
        4.63391         11.2879        0.941412 
         4.6496         11.1991        0.933376 
        4.66532         11.0695        0.925421 
        4.68103         11.0045        0.917563 
        4.69673         10.9176        0.909803 
        4.71241         10.8065         0.90214 
        4.72811         10.7219        0.894553 
        4.74384         10.6592        0.887044 
        4.75955         10.5517        0.879632 
        4.77525          10.473        0.872309 
        4.79096         10.4143         0.86506 
        4.80669         10.3352         0.85789 
         4.8224         10.2152         0.85081 
        4.83809         10.1512        0.843817 
        4.85379          10.098        0.836898 
         4.8695         10.0065        0.830051 
        4.88521         9.89574        0.823284 
        4.90093         9.82722        0.816591 
        4.91663         9.74987        0.809978 
        4.93234         9.68823        0.803432 
        4.94807         9.62683        0.796953 
        4.96377         9.50862        0.790558 
        4.97943         9.44925        0.784247 
        4.99514          9.3818        0.777988 
        5.01086         9.33068        0.771793 
        5.02654          9.2609        0.765681 
        5.04227         9.16197        0.759617 
          5.058         9.08602        0.753616 
        5.07371         9.05308        0.747692 
        5.08942         8.96435         0.74183 
        5.10513          8.8962        0.736031 
        5.12084         8.81873         0.73029 
        5.13656         8.78371        0.724613 
        5.15225         8.68493        0.719004 
        5.16796         8.62003        0.713447 
        5.18369         8.57135        0.707943 
         5.1994         8.49153        0.702507 
        5.21509         8.43658        0.697133 
        5.23079         8.38253        0.691808 
        5.24649         8.31028        0.686544 
        5.26217         8.24192        0.681338 
        5.27788         8.18032        0.676179 
        5.29359         8.12395        0.671072 
        5.30933         8.05318         0.66601 
        5.32504         7.99663        0.661009 
        5.34073         7.95112        0.656065 
        5.35646         7.88666        0.651161 
        5.37218         7.83227        0.646307 
        5.38789         7.78986         0.64151 
        5.40357         7.72321        0.636767 
        5.41929         7.66155        0.632062 
        5.43502         7.58437        0.627403 
         5.4507         7.55008        0.622803 
        5.46639         7.49968        0.618248 
        5.48212         7.44312        0.613728 
        5.49786         7.40018        0.609247 
        5.51353         7.34024        0.604834 
        5.52921          7.2821         0.60046 
        5.54495         7.23268        0.596116 
        5.56066         7.17709         0.59182 
        5.57637         7.13204        0.587567 
        5.59207         7.08956        0.583359 
        5.60778          7.0183        0.579191 
        5.62346         6.97048         0.57507 
        5.63916         6.92585        0.570984 
        5.65487         6.88092        0.566937 
         5.6706         6.82382        0.562923 
        5.68633         6.77171        0.558947 
        5.70203         6.74684        0.555018 
        5.71773         6.69292        0.551127 
        5.73344         6.63179        0.547271 
        5.74916         6.60126        0.543449 
        5.76486         6.56222        0.539668 
        5.78054         6.49906        0.535929 
        5.79626         6.44161        0.532215 
          5.812         6.40835        0.528533 
         5.8277         6.37182        0.524896 
        5.84339         6.32892        0.521293 
        5.85911         6.28806        0.517717 
        5.87484         6.24728        0.514175 
        5.89053         6.19482        0.510674 
        5.90623          6.1598        0.507203 
        5.92195         6.10981        0.503759 
        5.93767         6.07945        0.500348 
        5.95336          6.0288        0.496975 
        5.96905          5.9881        0.493634 
        5.98476         5.94712        0.490319 
        6.00048         5.91829        0.487034 
        6.01617         5.87515        0.483782 
        6.03185         5.83193        0.480565 
        6.04756         5.79251        0.477369 
        6.06331         5.74727        0.474195 
        6.07903         5.71744        0.471057 
        6.09473         5.68133         0.46795 
        6.11044          5.6413        0.464868 
        6.12616          5.6047        0.461815 
        6.14186         5.57565        0.458792 
        6.15755         5.53267        0.455796 
        6.17326         5.49573        0.452824 
        6.18898         5.45031        0.449878 
        6.20467         5.41697        0.446963 
        6.22036         5.38507        0.444074 
         6.2361         5.33543        0.441203 
         6.2518         5.31341        0.438362 
        6.26748         5.28046        0.435552 
        6.28319          5.2315        0.432759 
        6.29893         5.20228        0.429989 
        6.31463         5.17935        0.427247 
        6.33033         5.14153        0.424529 
        6.34604         5.11075        0.421834 
        6.36177         5.08228        0.419159 
        6.37747          5.0476        0.416513 
