# k  (h/Mpc)    Pcb(k)  (Mpc/h)^3    Pcb_linear(k) (Mpc/h)^3   ShotnoiseSubtracted = true
      0.0200456         11027.7         11231.6 
      0.0350414         8521.92         8806.76 
      0.0492313         6868.47         6977.66 
      0.0637834         5760.72         5673.95 
      0.0800726          4378.9         4286.12 
       0.096163         3264.91         3371.31 
       0.111083         2722.12         2853.81 
       0.126058         2398.62         2372.33 
       0.142273         2012.61         1930.45 
       0.158546         1777.05         1644.52 
        0.17375         1454.93         1430.79 
       0.188953         1369.45         1230.04 
       0.204907         1277.15         1064.78 
       0.220756         1108.65         941.093 
        0.23588         983.027         835.895 
         0.2514         854.395         740.669 
       0.267535         832.475         660.551 
       0.283568         759.344         593.562 
       0.299022         711.083         536.004 
       0.314451         669.978         485.972 
       0.330372         618.297         441.867 
       0.346141         567.102         403.373 
       0.361624         543.041           369.7 
       0.377134         506.346         339.918 
       0.392932         483.561         313.082 
       0.408854         464.519         288.885 
       0.424564         441.557         267.453 
       0.440253         428.034          248.27 
       0.455999         403.993         230.924 
       0.471626         376.587         215.324 
        0.48727          367.27         201.147 
       0.502856         355.564         188.299 
       0.518488         351.664         176.541 
       0.534347         330.181         165.633 
       0.550082         312.091         155.723 
       0.565732         309.387         146.674 
       0.581496         292.741         138.286 
       0.597222         287.101         130.572 
       0.612804         277.146         123.512 
       0.628434         266.739         116.957 
       0.644267         258.422         110.803 
       0.660051         254.365          105.11 
       0.675724         250.274         99.8548 
       0.691403         242.844          94.958 
       0.707174         232.816         90.3649 
       0.722871         230.698         86.0962 
        0.73838         225.962         82.1504 
       0.754018         219.523         78.4232 
       0.769845         212.629         74.8874 
        0.78569          211.33         71.5669 
       0.801365         204.809         68.4807 
       0.817031         198.406          65.579 
       0.832809         195.229         62.8274 
       0.848511         190.716         60.2464 
       0.864097         187.803         57.8286 
       0.879701         183.721         55.5415 
       0.895507         179.243         53.3515 
       0.911279          174.99         51.2846 
        0.92691         173.682         49.3448 
       0.942635         169.973         47.4949 
       0.958396         169.335         45.7364 
       0.974128          164.58         44.0705 
       0.989692          160.33         42.5045 
        1.00528         157.766         41.0126 
        1.02113         157.003         39.5693 
        1.03692         151.186         38.2011 
        1.05264         149.334         36.9042 
        1.06832         146.553         35.6699 
        1.08405         144.303          34.489 
        1.09979         143.751         33.3611 
        1.11537         138.892         32.2951 
        1.13105         138.171         31.2695 
        1.14679         137.102         30.2847 
        1.16256         134.809         29.3405 
        1.17828         131.516         28.4399 
        1.19395         130.264         27.5803 
         1.2097         127.963         26.7519 
        1.22537         126.722         25.9617 
          1.241         124.116          25.206 
        1.25666         121.874         24.4785 
        1.27241         120.403         23.7764 
        1.28819         118.537         23.1008 
        1.30392         117.223         22.4535 
        1.31957         115.201          21.834 
        1.33529         112.973         21.2356 
        1.35108         111.742         20.6574 
        1.36674         110.631         20.1049 
         1.3824         108.392         19.5732 
        1.39811         107.402          19.059 
        1.41389         105.679         18.5613 
        1.42964         104.109         18.0824 
        1.44531         101.607         17.6227 
        1.46101          100.93         17.1781 
        1.47667          99.839         16.7501 
        1.49229         98.1176          16.338 
        1.50793         97.2173         15.9393 
        1.52367         96.0998         15.5513 
        1.53953         94.2858         15.1738 
        1.55526         93.2541         14.8118 
        1.57092         92.3792         14.4631 
        1.58662         90.7631         14.1249 
        1.60235         90.0475         13.7968 
        1.61809         88.5794          13.479 
        1.63369         87.5003         13.1741 
        1.64941         86.6036         12.8765 
        1.66519         84.8457          12.587 
        1.68085         83.9864         12.3085 
        1.69652          82.299         12.0384 
        1.71228         82.0993         11.7748 
        1.72806         80.7932          11.519 
        1.74368         79.8506         11.2733 
        1.75933         78.7969         11.0343 
        1.77505         77.8608         10.8012 
        1.79081         76.6322         10.5743 
         1.8065         75.9187          10.355 
        1.82218         74.4708         10.1421 
        1.83797         74.1164         9.93379 
        1.85367          73.049         9.73245 
        1.86928          72.766         9.53792 
        1.88497         71.1621         9.34765 
        1.90073         70.2606         9.16187 
        1.91647          69.836         8.98132 
        1.93218         68.7114         8.80603 
        1.94787         67.8735         8.63568 
        1.96363         66.6717         8.46918 
        1.97935         66.5386         8.30741 
        1.99499         65.3772         8.15078 
        2.01064          64.917         7.99798 
         2.0264          63.633         7.84814 
        2.04216         62.8026         7.70221 
        2.05781         62.1617         7.56093 
        2.07353         61.4152         7.42269 
        2.08928         60.5227         7.28761 
        2.10499         60.1406         7.15626 
        2.12065          59.448         7.02854 
        2.13633         58.8252         6.90384 
        2.15211          58.317         6.78136 
        2.16785         57.4156         6.66219 
        2.18349          57.061         6.54665 
        2.19916         56.1891          6.4336 
        2.21489         55.8047         6.32285 
        2.23063         54.9919         6.21464 
         2.2463         54.4789         6.10945 
        2.26194         53.4795         6.00696 
        2.27765         53.0743          5.9063 
        2.29341         52.5254         5.80768 
        2.30914         51.6825         5.71152 
        2.32486         50.9867          5.6176 
        2.34061         50.5023         5.52564 
        2.35635         50.1229         5.43581 
        2.37203         49.2622          5.3483 
        2.38768         48.9172          5.2629 
        2.40339          48.278         5.17905 
        2.41914         48.0066         5.09684 
        2.43483         47.5125         5.01671 
         2.4505         46.9433         4.93843 
        2.46622         46.4477         4.86156 
        2.48195         45.8494         4.78632 
        2.49759         45.2499         4.71307 
        2.51328         44.7026         4.64117 
        2.52906          44.327         4.57032 
        2.54479         43.7932         4.50121 
        2.56049         43.1546         4.43366 
        2.57618         42.8025         4.36756 
        2.59189         42.3185         4.30271 
        2.60758         41.8666         4.23928 
        2.62325         41.4286          4.1772 
        2.63898         41.0341         4.11615 
        2.65468          40.399         4.05646 
        2.67044         40.0201         3.99769 
        2.68618           39.68         3.94022 
        2.70184         39.2488         3.88411 
        2.71755         38.9744         3.82896 
        2.73329         38.2436         3.77479 
        2.74897         37.9348         3.72185 
        2.76462         37.4147         3.67004 
        2.78034         37.1984           3.619 
        2.79607         36.7411         3.56888 
        2.81179         36.3719         3.51977 
        2.82749         35.8824         3.47164 
        2.84321         35.6131         3.42435 
        2.85893         35.1707         3.37796 
        2.87462          34.726         3.33251 
        2.89033         34.4397         3.28785 
        2.90605         34.0998         3.24398 
        2.92176          33.887         3.20093 
        2.93747         33.3993         3.15868 
        2.95318         33.0012         3.11718 
        2.96891         32.6056         3.07641 
        2.98456         32.4029         3.03655 
        3.00023         31.9632         2.99734 
        3.01596          31.609         2.95871 
        3.03164         31.4401         2.92086 
        3.04738         31.0608         2.88356 
         3.0631          30.725         2.84693 
        3.07883         30.4108         2.81093 
        3.09456         30.0652         2.77556 
        3.11026         29.8134         2.74086 
        3.12596         29.5091         2.70675 
        3.14163         29.1496          2.6733 
        3.15734         28.9938         2.64034 
        3.17308         28.5829         2.60785 
        3.18879         28.2603           2.576 
        3.20447         28.0698         2.54473 
         3.2202         27.7238         2.51388 
         3.2359         27.4844          2.4836 
        3.25157         27.3311         2.45389 
        3.26729         27.0609         2.42457 
        3.28304          26.701         2.39568 
        3.29877         26.3114         2.36729 
        3.31446         26.1588         2.33943 
        3.33014         25.9543         2.31204 
        3.34585         25.7208         2.28505 
        3.36158         25.3037         2.25844 
        3.37727         25.1406         2.23235 
        3.39294         24.9333         2.20669 
        3.40867         24.6488         2.18134 
        3.42439         24.3562          2.1564 
        3.44008         24.1794          2.1319 
        3.45578         24.0272         2.10777 
        3.47153         23.6704         2.08395 
        3.48724         23.4211         2.06055 
        3.50292         23.2957         2.03755 
        3.51859         23.0044         2.01492 
        3.53431          22.796         1.99257 
        3.55007         22.6209          1.9705 
        3.56577         22.3601         1.94885 
        3.58146           22.25         1.92753 
        3.59719          21.972         1.90648 
        3.61292         21.7474         1.88576 
        3.62859         21.5382         1.86542 
        3.64429         21.3668         1.84534 
        3.66003         21.1756          1.8255 
        3.67578          20.913         1.80595 
        3.69146         20.7387         1.78677 
        3.70712         20.5345          1.7679 
        3.72284          20.391         1.74923 
        3.73853         20.1358         1.73086 
        3.75422         19.9781         1.71275 
        3.76993         19.8255         1.69489 
        3.78564         19.5938         1.67728 
        3.80137         19.4454          1.6599 
        3.81707         19.2568          1.6428 
        3.83279         19.0687         1.62593 
        3.84853         18.8994         1.60926 
        3.86424         18.7337         1.59287 
        3.87992         18.5574         1.57672 
        3.89561         18.3855          1.5608 
        3.91134          18.213         1.54506 
        3.92704         18.0639         1.52957 
        3.94273         17.8947         1.51429 
        3.95845         17.7138          1.4992 
        3.97418         17.5785         1.48431 
        3.98988         17.4001         1.46965 
        4.00554         17.2396         1.45522 
        4.02125         17.1011         1.44094 
        4.03698         16.9183         1.42684 
        4.05268         16.7829         1.41295 
        4.06839         16.6585         1.39924 
         4.0841         16.5106         1.38572 
        4.09983          16.306         1.37235 
        4.11555         16.1785         1.35917 
        4.13124         16.0576         1.34619 
        4.14693         15.8544         1.33338 
        4.16266         15.7702          1.3207 
        4.17839          15.635         1.30819 
        4.19408         15.4854         1.29588 
        4.20977         15.3246         1.28371 
        4.22551         15.2406         1.27168 
        4.24123         15.1216         1.25981 
        4.25691         14.9597         1.24812 
        4.27259         14.8314         1.23658 
        4.28831         14.6543         1.22516 
        4.30404         14.5712         1.21388 
        4.31974         14.4212         1.20276 
        4.33543         14.3059         1.19179 
        4.35116         14.1964         1.18092 
        4.36688         14.1016          1.1702 
        4.38255         13.9662         1.15965 
        4.39825         13.8527         1.14921 
        4.41398         13.7312         1.13887 
         4.4297         13.5997         1.12868 
        4.44541         13.5176         1.11861 
        4.46111         13.4042         1.10867 
        4.47683         13.2838         1.09884 
        4.49251         13.1853         1.08915 
        4.50819         13.0574         1.07959 
         4.5239         12.9788         1.07012 
        4.53962         12.8346         1.06075 
        4.55535         12.7309          1.0515 
        4.57106         12.6337         1.04236 
        4.58678         12.5184         1.03334 
         4.6025         12.4127         1.02441 
        4.61821          12.344          1.0156 
        4.63391         12.2185          1.0069 
         4.6496         12.1327        0.998301 
        4.66532         11.9884        0.989793 
        4.68103         11.9137        0.981387 
        4.69673         11.8452        0.973088 
        4.71241         11.7256        0.964892 
        4.72811         11.6086        0.956777 
        4.74384         11.5471        0.948745 
        4.75955          11.436        0.940818 
        4.77525         11.3505        0.932986 
        4.79096         11.2818        0.925233 
        4.80669         11.1887        0.917564 
         4.8224         11.0623        0.909991 
        4.83809         11.0111        0.902512 
        4.85379         10.9136        0.895112 
         4.8695         10.8336        0.887789 
        4.88521         10.7265         0.88055 
        4.90093         10.6457        0.873392 
        4.91663         10.5668        0.866319 
        4.93234          10.488        0.859317 
        4.94807          10.396        0.852388 
        4.96377         10.3013        0.845549 
        4.97943         10.2523        0.838798 
        4.99514         10.1568        0.832104 
        5.01086           10.08        0.825478 
        5.02654         10.0053        0.818941 
        5.04227         9.90986        0.812455 
          5.058          9.8325        0.806037 
        5.07371         9.78926          0.7997 
        5.08942          9.7007        0.793431 
        5.10513         9.60739        0.787228 
        5.12084         9.54015        0.781089 
        5.13656         9.53053        0.775016 
        5.15225         9.40512        0.769018 
        5.16796         9.30647        0.763073 
        5.18369          9.2711        0.757186 
         5.1994         9.17416        0.751372 
        5.21509         9.12773        0.745624 
        5.23079         9.06234         0.73993 
        5.24649         8.98456        0.734299 
        5.26217         8.90917        0.728731 
        5.27788         8.84408        0.723213 
        5.29359         8.79524        0.717751 
        5.30933         8.70684        0.712337 
        5.32504         8.65308        0.706988 
        5.34073         8.59812          0.7017 
        5.35646         8.51669        0.696456 
        5.37218         8.46658        0.691264 
        5.38789         8.40259        0.686133 
        5.40357         8.35271         0.68106 
        5.41929         8.27804        0.676027 
        5.43502         8.21911        0.671045 
         5.4507           8.157        0.666124 
        5.46639         8.09518        0.661252 
        5.48212         8.04876        0.656418 
        5.49786         7.97875        0.651626 
        5.51353         7.91918        0.646906 
        5.52921         7.87073        0.642227 
        5.54495          7.8173        0.637581 
        5.56066         7.74818        0.632986 
        5.57637         7.70062        0.628437 
        5.59207         7.65814        0.623937 
        5.60778         7.58227        0.619479 
        5.62346         7.55144        0.615071 
        5.63916         7.48492        0.610701 
        5.65487         7.42884        0.606372 
         5.6706         7.37243         0.60208 
        5.68633         7.32847        0.597827 
        5.70203         7.28415        0.593624 
        5.71773         7.22637        0.589463 
        5.73344         7.17213        0.585339 
        5.74916         7.12069        0.581251 
        5.76486         7.08902        0.577207 
        5.78054         7.03136        0.573208 
        5.79626         6.96764        0.569236 
          5.812         6.91912        0.565297 
         5.8277         6.88525        0.561407 
        5.84339         6.83789        0.557554 
        5.85911         6.79193        0.553729 
        5.87484         6.74362        0.549941 
        5.89053         6.69402        0.546196 
        5.90623         6.64876        0.542484 
        5.92195         6.60989          0.5388 
        5.93767         6.56138        0.535152 
        5.95336         6.51488        0.531544 
        5.96905         6.47633        0.527971 
        5.98476         6.41913        0.524425 
        6.00048         6.39415        0.520911 
        6.01617         6.33988        0.517434 
        6.03185         6.29703        0.513993 
        6.04756         6.26191        0.510574 
        6.06331         6.21263         0.50718 
        6.07903         6.17175        0.503823 
        6.09473         6.13433          0.5005 
        6.11044         6.08607        0.497204 
        6.12616         6.05548        0.493938 
        6.14186         6.01482        0.490705 
        6.15755         5.96938        0.487501 
        6.17326         5.92973        0.484322 
        6.18898         5.89349        0.481171 
        6.20467         5.85719        0.478054 
        6.22036         5.81529        0.474964 
         6.2361         5.76334        0.471893 
         6.2518         5.73407        0.468854 
        6.26748         5.69963        0.465849 
        6.28319         5.65411        0.462862 
        6.29893         5.61742        0.459898 
        6.31463         5.58757        0.456965 
        6.33033         5.55173        0.454059 
        6.34604         5.51211        0.451176 
        6.36177         5.48459        0.448316 
        6.37747         5.44401        0.445485 
