# k  (h/Mpc)    Pcb(k)  (Mpc/h)^3    Pcb_linear(k) (Mpc/h)^3   ShotnoiseSubtracted = true
      0.0200456         14020.7         14213.7 
      0.0350414         11413.9           11145 
      0.0492313         8653.63         8830.29 
      0.0637834         6851.22         7180.43 
      0.0800726         5181.44         5424.13 
       0.096163         4353.96         4266.42 
       0.111083         3720.58         3611.52 
       0.126058         2959.52          3002.2 
       0.142273         2506.28            2443 
       0.158546         2150.58         2081.15 
        0.17375         1929.14         1810.67 
       0.188953         1763.72         1556.63 
       0.204907         1504.86         1347.48 
       0.220756          1368.5         1190.96 
        0.23588         1229.56         1057.83 
         0.2514         1102.36         937.323 
       0.267535         1065.53         835.933 
       0.283568         941.923         751.158 
       0.299022         902.439         678.317 
       0.314451         924.456         615.002 
       0.330372         800.842         559.186 
       0.346141         741.484         510.472 
       0.361624         711.357         467.858 
       0.377134          673.93          430.17 
       0.392932         651.694         396.208 
       0.408854         620.022         365.587 
       0.424564         603.183         338.464 
       0.440253          551.64         314.187 
       0.455999         528.909         292.237 
       0.471626         535.781         272.494 
        0.48727         507.337         254.553 
       0.502856         472.122         238.294 
       0.518488         470.431         223.414 
       0.534347          440.02          209.61 
       0.550082         424.871         197.069 
       0.565732         421.747         185.617 
       0.581496         408.315         175.002 
       0.597222         396.894          165.24 
       0.612804         388.549         156.305 
       0.628434         371.894          148.01 
       0.644267           357.6         140.222 
       0.660051         352.142         133.018 
       0.675724         347.773         126.367 
       0.691403         337.998          120.17 
       0.707174           325.7         114.358 
       0.722871         320.135         108.955 
        0.73838          317.56         103.962 
       0.754018         304.033         99.2452 
       0.769845         302.047         94.7706 
        0.78569          295.56         90.5684 
       0.801365          288.38         86.6629 
       0.817031         282.126         82.9908 
       0.832809         278.507         79.5086 
       0.848511          270.85         76.2424 
       0.864097         264.551         73.1825 
       0.879701         262.966         70.2883 
       0.895507         255.625         67.5168 
       0.911279         248.619         64.9011 
        0.92691         246.567         62.4462 
       0.942635         244.907         60.1052 
       0.958396         238.237         57.8798 
       0.974128         233.679         55.7716 
       0.989692         226.053         53.7897 
        1.00528         225.204         51.9017 
        1.02113          221.54         50.0752 
        1.03692         216.415         48.3438 
        1.05264          213.26         46.7026 
        1.06832          212.32         45.1406 
        1.08405         206.492         43.6461 
        1.09979         205.428         42.2188 
        1.11537         200.352         40.8697 
        1.13105         197.397         39.5718 
        1.14679          194.99         38.3255 
        1.16256         192.527         37.1307 
        1.17828         189.819         35.9909 
        1.19395         184.729         34.9031 
         1.2097         184.132         33.8548 
        1.22537         182.527         32.8548 
          1.241         178.703         31.8984 
        1.25666         175.362         30.9777 
        1.27241          171.64         30.0893 
        1.28819          170.11         29.2343 
        1.30392         167.066         28.4151 
        1.31957         163.558         27.6311 
        1.33529         162.043         26.8738 
        1.35108          159.26         26.1421 
        1.36674          157.25         25.4429 
         1.3824          155.85           24.77 
        1.39811         152.001         24.1193 
        1.41389         150.551         23.4895 
        1.42964         147.932         22.8834 
        1.44531         146.181         22.3016 
        1.46101         143.372          21.739 
        1.47667         142.717         21.1974 
        1.49229         140.317         20.6759 
        1.50793         137.964         20.1713 
        1.52367         136.338         19.6804 
        1.53953         133.582         19.2025 
        1.55526         133.212         18.7444 
        1.57092         131.059         18.3032 
        1.58662         128.532         17.8751 
        1.60235         126.707           17.46 
        1.61809         125.163         17.0578 
        1.63369         123.701          16.672 
        1.64941         122.832         16.2953 
        1.66519          120.33          15.929 
        1.68085         118.636         15.5765 
        1.69652         117.443         15.2346 
        1.71228         116.329         14.9011 
        1.72806         114.273         14.5773 
        1.74368         112.622         14.2664 
        1.75933         111.546          13.964 
        1.77505         109.486          13.669 
        1.79081          108.48         13.3819 
         1.8065         106.402         13.1044 
        1.82218         105.169          12.835 
        1.83797         104.802         12.5713 
        1.85367         102.565         12.3165 
        1.86928         102.131         12.0703 
        1.88497         100.534         11.8295 
        1.90073         99.5031         11.5944 
        1.91647         97.5337         11.3659 
        1.93218         96.4212         11.1441 
        1.94787         95.3831         10.9285 
        1.96363         94.3173         10.7178 
        1.97935         93.1534         10.5131 
        1.99499         92.0758         10.3149 
        2.01064         90.3955         10.1215 
         2.0264         89.3407         9.93188 
        2.04216         88.0359         9.74722 
        2.05781         87.2411         9.56842 
        2.07353         86.1081         9.39347 
        2.08928         84.8956         9.22253 
        2.10499         83.7003          9.0563 
        2.12065         83.4624         8.89468 
        2.13633         82.2412         8.73686 
        2.15211         81.0345         8.58186 
        2.16785         79.7356         8.43106 
        2.18349         78.7039         8.28483 
        2.19916         78.1286         8.14177 
        2.21489         76.7472         8.00162 
        2.23063         76.0446         7.86468 
         2.2463         75.4075         7.73156 
        2.26194         74.3553         7.60185 
        2.27765         73.4612         7.47447 
        2.29341           72.66         7.34967 
        2.30914         71.6888         7.22798 
        2.32486         70.1966         7.10912 
        2.34061         69.8542         6.99274 
        2.35635         68.9174         6.87907 
        2.37203         68.0129         6.76832 
        2.38768         67.1744         6.66024 
        2.40339         66.2822         6.55413 
        2.41914         65.6059         6.45009 
        2.43483         64.9134         6.34868 
         2.4505         63.9397         6.24962 
        2.46622          63.522         6.15234 
        2.48195         62.6398         6.05712 
        2.49759         61.9023         5.96443 
        2.51328         61.1487         5.87344 
        2.52906         60.4129         5.78377 
        2.54479          59.637         5.69631 
        2.56049         58.9512         5.61083 
        2.57618         58.1795         5.52718 
        2.59189         57.8265         5.44511 
        2.60758         56.9031         5.36484 
        2.62325         56.4069         5.28628 
        2.63898          55.626         5.20903 
        2.65468         55.1449         5.13348 
        2.67044          54.593         5.05911 
        2.68618         53.9677         4.98638 
        2.70184         53.1484         4.91538 
        2.71755         52.6544         4.84558 
        2.73329         52.1644         4.77703 
        2.74897         51.7796         4.71003 
        2.76462         51.1246         4.64446 
        2.78034         50.4171         4.57988 
        2.79607         49.5689         4.51645 
        2.81179         49.2042          4.4543 
        2.82749         48.7812         4.39339 
        2.84321         48.3323         4.33355 
        2.85893         47.7418         4.27484 
        2.87462         47.0443         4.21732 
        2.89033         46.5658         4.16081 
        2.90605          45.978         4.10528 
        2.92176         45.4731          4.0508 
        2.93747         44.9424         3.99733 
        2.95318          44.703         3.94482 
        2.96891         44.1044         3.89323 
        2.98456         43.6779         3.84279 
        3.00023         43.0975         3.79316 
        3.01596         42.7687         3.74427 
        3.03164         42.1821         3.69637 
        3.04738         41.7435         3.64917 
         3.0631         41.4118         3.60281 
        3.07883         40.9368         3.55726 
        3.09456         40.4327          3.5125 
        3.11026         39.9615         3.46858 
        3.12596         39.4844         3.42541 
        3.14163         39.2415         3.38308 
        3.15734         38.8656         3.34137 
        3.17308         38.5091         3.30026 
        3.18879         37.9699         3.25995 
        3.20447         37.5552         3.22038 
         3.2202         37.2042         3.18134 
         3.2359         36.8331         3.14302 
        3.25157         36.4462         3.10542 
        3.26729         36.1017         3.06832 
        3.28304         35.7003         3.03175 
        3.29877         35.2467         2.99583 
        3.31446         35.0367         2.96057 
        3.33014         34.6237         2.92591 
        3.34585          34.211         2.89174 
        3.36158         33.8929         2.85808 
        3.37727         33.5032         2.82505 
        3.39294         33.1854         2.79258 
        3.40867         32.9601          2.7605 
        3.42439         32.5708         2.72894 
        3.44008         32.2891         2.69794 
        3.45578         31.9365          2.6674 
        3.47153         31.6947         2.63726 
        3.48724         31.2571         2.60764 
        3.50292         31.0766         2.57854 
        3.51859         30.7709          2.5499 
        3.53431         30.3814         2.52161 
        3.55007          30.054         2.49368 
        3.56577         29.7766         2.46628 
        3.58146         29.6102         2.43931 
        3.59719         29.2033         2.41267 
        3.61292         29.0036         2.38644 
        3.62859         28.6362          2.3607 
        3.64429         28.4142          2.3353 
        3.66003         28.1057         2.31018 
        3.67578         27.9019         2.28545 
        3.69146         27.7074         2.26117 
        3.70712         27.3053         2.23729 
        3.72284         27.1128         2.21366 
        3.73853         26.8951         2.19042 
        3.75422         26.5887          2.1675 
        3.76993         26.2752         2.14489 
        3.78564         26.1343         2.12261 
        3.80137         25.8623         2.10062 
        3.81707         25.6303         2.07898 
        3.83279         25.3137         2.05762 
        3.84853         25.1891         2.03653 
        3.86424         24.7495         2.01578 
        3.87992         24.6309         1.99535 
        3.89561         24.4159          1.9752 
        3.91134         24.1662         1.95529 
        3.92704         23.8978         1.93568 
        3.94273         23.7329         1.91635 
        3.95845         23.5225         1.89725 
        3.97418          23.255         1.87841 
        3.98988         23.0579         1.85985 
        4.00554         22.8197         1.84159 
        4.02125         22.6757         1.82353 
        4.03698         22.4604         1.80568 
        4.05268         22.2126          1.7881 
        4.06839         22.0268         1.77075 
         4.0841         21.8886         1.75364 
        4.09983         21.6024         1.73672 
        4.11555         21.4556         1.72004 
        4.13124         21.3007         1.70362 
        4.14693         21.1067          1.6874 
        4.16266         20.8564         1.67136 
        4.17839          20.772         1.65553 
        4.19408         20.4531         1.63994 
        4.20977         20.3327         1.62455 
        4.22551         20.1778         1.60932 
        4.24123         19.9953          1.5943 
        4.25691         19.8165         1.57951 
        4.27259         19.5925          1.5649 
        4.28831          19.494         1.55045 
        4.30404         19.2592         1.53617 
        4.31974         19.0698          1.5221 
        4.33543         18.9836         1.50822 
        4.35116         18.8348         1.49447 
        4.36688         18.6781          1.4809 
        4.38255         18.4623         1.46755 
        4.39825         18.3084         1.45433 
        4.41398         18.1161         1.44125 
         4.4297         18.0097         1.42835 
        4.44541         17.8197         1.41561 
        4.46111         17.6486         1.40303 
        4.47683         17.5107         1.39059 
        4.49251         17.4238         1.37833 
        4.50819         17.2377         1.36622 
         4.5239         17.1191         1.35424 
        4.53962         16.9891         1.34239 
        4.55535          16.849         1.33068 
        4.57106         16.6829         1.31912 
        4.58678         16.5141         1.30769 
         4.6025         16.3588          1.2964 
        4.61821         16.3102         1.28525 
        4.63391         16.1021         1.27424 
         4.6496         15.9713         1.26336 
        4.66532          15.893         1.25259 
        4.68103         15.7344         1.24195 
        4.69673          15.591         1.23145 
        4.71241          15.482         1.22108 
        4.72811          15.367         1.21081 
        4.74384         15.2226         1.20065 
        4.75955         15.1287         1.19061 
        4.77525         14.9776          1.1807 
        4.79096         14.8416         1.17089 
        4.80669          14.737         1.16119 
         4.8224         14.6101          1.1516 
        4.83809         14.4658         1.14214 
        4.85379         14.3898         1.13277 
         4.8695         14.2555          1.1235 
        4.88521         14.1418         1.11434 
        4.90093         14.0183         1.10528 
        4.91663         13.9049         1.09633 
        4.93234         13.7783         1.08747 
        4.94807         13.7035          1.0787 
        4.96377         13.6067         1.07005 
        4.97943         13.4859         1.06151 
        4.99514         13.3938         1.05303 
        5.01086         13.2974         1.04465 
        5.02654         13.1726         1.03638 
        5.04227         13.0729         1.02817 
          5.058         12.9613         1.02005 
        5.07371         12.8663         1.01203 
        5.08942         12.7706         1.00409 
        5.10513         12.6808        0.996244 
        5.12084         12.5707        0.988474 
        5.13656         12.4938        0.980789 
        5.15225         12.3691        0.973198 
        5.16796         12.2724        0.965676 
        5.18369         12.1914        0.958226 
         5.1994         12.0903        0.950868 
        5.21509         11.9855        0.943594 
        5.23079         11.9031        0.936387 
        5.24649          11.831        0.929262 
        5.26217         11.7102        0.922215 
        5.27788         11.6527        0.915232 
        5.29359         11.5386        0.908319 
        5.30933         11.4683        0.901468 
        5.32504         11.3962        0.894699 
        5.34073         11.2998        0.888007 
        5.35646         11.2233         0.88137 
        5.37218         11.1155          0.8748 
        5.38789         11.0157        0.868307 
        5.40357         10.9587        0.861887 
        5.41929         10.9014        0.855518 
        5.43502         10.8073        0.849213 
         5.4507         10.7016        0.842986 
        5.46639         10.6192         0.83682 
        5.48212         10.5438        0.830702 
        5.49786         10.4897        0.824638 
        5.51353          10.428        0.818664 
        5.52921         10.3446        0.812744 
        5.54495         10.2534        0.806864 
        5.56066         10.1968        0.801049 
        5.57637         10.1245        0.795293 
        5.59207         10.0183        0.789598 
        5.60778         9.94682        0.783956 
        5.62346         9.88103        0.778377 
        5.63916          9.8127        0.772848 
        5.65487         9.74001        0.767369 
         5.6706         9.67297        0.761937 
        5.68633          9.5938        0.756555 
        5.70203         9.53828        0.751237 
        5.71773         9.47558         0.74597 
        5.73344         9.41732        0.740751 
        5.74916         9.33479        0.735578 
        5.76486         9.28619         0.73046 
        5.78054          9.2148        0.725399 
        5.79626         9.14092        0.720372 
          5.812         9.07912        0.715388 
         5.8277         9.00986        0.710465 
        5.84339         8.92525        0.705589 
        5.85911         8.88333        0.700749 
        5.87484         8.83118        0.695955 
        5.89053         8.75933        0.691215 
        5.90623          8.7142        0.686518 
        5.92195         8.65034        0.681856 
        5.93767         8.56984         0.67724 
        5.95336         8.52144        0.672674 
        5.96905         8.47482        0.668151 
        5.98476         8.41014        0.663665 
        6.00048         8.33323        0.659217 
        6.01617          8.2875        0.654817 
        6.03185         8.23804        0.650462 
        6.04756         8.17188        0.646136 
        6.06331         8.13694         0.64184 
        6.07903         8.07124        0.637592 
        6.09473         8.00062        0.633387 
        6.11044         7.95742        0.629216 
        6.12616         7.92252        0.625083 
        6.14186         7.85391        0.620991 
        6.15755         7.79615        0.616936 
        6.17326         7.74522        0.612914 
        6.18898          7.6994        0.608926 
        6.20467         7.63615        0.604981 
        6.22036         7.59081         0.60107 
         6.2361         7.54081        0.597184 
         6.2518         7.48884        0.593339 
        6.26748         7.44834        0.589536 
        6.28319         7.39148        0.585755 
        6.29893         7.34296        0.582005 
        6.31463         7.30634        0.578293 
        6.33033         7.24016        0.574616 
        6.34604         7.19929        0.570967 
        6.36177         7.16581        0.567347 
        6.37747         7.11707        0.563765 
