# k  (h/Mpc)    Pcb(k)  (Mpc/h)^3    Pcb_linear(k) (Mpc/h)^3   ShotnoiseSubtracted = true
      0.0200456         901.471          912.67 
      0.0350414          711.36         715.626 
      0.0492313         566.952         566.996 
      0.0637834          464.28         461.058 
      0.0800726         352.932         348.285 
       0.096163          272.53         273.949 
       0.111083         228.622         231.897 
       0.126058         193.834         192.772 
       0.142273         159.236         156.866 
       0.158546         135.068         133.632 
        0.17375         115.544         116.264 
       0.188953         101.255         99.9516 
       0.204907         90.2666         86.5224 
       0.220756         78.1895         76.4721 
        0.23588         69.3624         67.9238 
         0.2514         61.1156         60.1859 
       0.267535         55.0209         53.6756 
       0.283568         49.6816         48.2322 
       0.299022         45.2266          43.555 
       0.314451         40.3079         39.4895 
       0.330372         37.1258         35.9056 
       0.346141         33.8837         32.7776 
       0.361624         31.3235         30.0413 
       0.377134         29.1848         27.6214 
       0.392932         25.9728         25.4407 
       0.408854         24.8224         23.4745 
       0.424564         23.0313         21.7329 
       0.440253         21.2821         20.1741 
       0.455999         20.0423         18.7646 
       0.471626         18.8276          17.497 
        0.48727          17.609         16.3449 
       0.502856         16.4269         15.3009 
       0.518488         15.6861         14.3455 
       0.534347         14.9311         13.4592 
       0.550082         13.6775         12.6539 
       0.565732         12.6609         11.9185 
       0.581496         12.3734         11.2369 
       0.597222         11.8408         10.6101 
       0.612804         11.0389         10.0364 
       0.628434          10.638         9.50376 
       0.644267         10.1552          9.0037 
       0.660051         9.58098         8.54115 
       0.675724         9.11207         8.11408 
       0.691403         8.78727         7.71617 
       0.707174         8.34313         7.34294 
       0.722871         7.98628         6.99607 
        0.73838         7.68669         6.67544 
       0.754018         7.42561         6.37258 
       0.769845         7.04256         6.08526 
        0.78569         6.80732         5.81544 
       0.801365         6.51281         5.56466 
       0.817031         6.29669         5.32887 
       0.832809          6.0774         5.10528 
       0.848511         5.74392         4.89555 
       0.864097         5.53738         4.69908 
       0.879701          5.3508         4.51324 
       0.895507         5.13554         4.33528 
       0.911279         5.04956         4.16733 
        0.92691         4.85276         4.00969 
       0.942635          4.6471         3.85938 
       0.958396         4.48266         3.71648 
       0.974128         4.35789         3.58112 
       0.989692         4.27438         3.45386 
        1.00528         4.08499         3.33263 
        1.02113         3.93345         3.21535 
        1.03692         3.86585         3.10417 
        1.05264         3.72561         2.99879 
        1.06832         3.63671         2.89849 
        1.08405         3.46941         2.80254 
        1.09979         3.39668         2.71089 
        1.11537         3.31339         2.62426 
        1.13105         3.22783         2.54092 
        1.14679         3.13735          2.4609 
        1.16256         3.03801         2.38418 
        1.17828         2.97005         2.31099 
        1.19395         2.89068         2.24114 
         1.2097         2.76658         2.17383 
        1.22537         2.71128         2.10962 
          1.241         2.65581         2.04821 
        1.25666         2.63116         1.98909 
        1.27241         2.51375         1.93204 
        1.28819           2.457         1.87714 
        1.30392         2.41479         1.82454 
        1.31957         2.35557          1.7742 
        1.33529         2.28698         1.72558 
        1.35108         2.23707         1.67859 
        1.36674         2.17415          1.6337 
         1.3824         2.11901         1.59049 
        1.39811         2.07332         1.54871 
        1.41389         2.03834         1.50827 
        1.42964          1.9931         1.46935 
        1.44531         1.94832           1.432 
        1.46101         1.91208         1.39587 
        1.47667         1.84208          1.3611 
        1.49229         1.83097          1.3276 
        1.50793         1.78118         1.29521 
        1.52367         1.75635         1.26368 
        1.53953         1.69814           1.233 
        1.55526         1.66617         1.20359 
        1.57092         1.63664         1.17525 
        1.58662          1.6088         1.14777 
        1.60235         1.57216         1.12111 
        1.61809         1.53717         1.09529 
        1.63369         1.52214         1.07051 
        1.64941         1.48121         1.04633 
        1.66519         1.45802         1.02281 
        1.68085         1.41407         1.00017 
        1.69652         1.39396        0.978222 
        1.71228         1.37625        0.956806 
        1.72806         1.33831        0.936016 
        1.74368         1.32325        0.916054 
        1.75933         1.29158        0.896635 
        1.77505         1.27196        0.877689 
        1.79081         1.25053        0.859259 
         1.8065         1.22185        0.841437 
        1.82218          1.2085        0.824138 
        1.83797         1.18742        0.807208 
        1.85367         1.17599        0.790847 
        1.86928         1.15205        0.775039 
        1.88497         1.12423        0.759578 
        1.90073         1.10201        0.744483 
        1.91647         1.09491        0.729811 
        1.93218         1.07215        0.715567 
        1.94787         1.05058        0.701725 
        1.96363         1.03448        0.688195 
        1.97935         1.01564         0.67505 
        1.99499        0.998383        0.662323 
        2.01064        0.983713        0.649906 
         2.0264        0.972816         0.63773 
        2.04216        0.955929        0.625873 
        2.05781        0.939816        0.614392 
        2.07353        0.926776        0.603159 
        2.08928        0.907361        0.592182 
        2.10499        0.896476        0.581509 
        2.12065        0.889101        0.571131 
        2.13633        0.871694        0.560997 
        2.15211        0.854605        0.551045 
        2.16785        0.841722        0.541362 
        2.18349        0.832433        0.531973 
        2.19916        0.820062        0.522786 
        2.21489        0.804791        0.513787 
        2.23063        0.793492        0.504994 
         2.2463        0.789512        0.496446 
        2.26194         0.76677        0.488118 
        2.27765          0.7592        0.479938 
        2.29341        0.752825        0.471925 
        2.30914        0.746003        0.464112 
        2.32486         0.73131        0.456479 
        2.34061        0.720197        0.449006 
        2.35635        0.707883        0.441708 
        2.37203        0.700671        0.434596 
        2.38768        0.692132        0.427657 
        2.40339        0.684211        0.420844 
        2.41914        0.674648        0.414163 
        2.43483        0.664441        0.407651 
         2.4505          0.6547        0.401291 
        2.46622        0.646795        0.395044 
        2.48195        0.642991         0.38893 
        2.49759        0.631815        0.382978 
        2.51328         0.62053        0.377136 
        2.52906        0.614901        0.371378 
        2.54479         0.60713        0.365762 
        2.56049        0.596685        0.360274 
        2.57618        0.592392        0.354902 
        2.59189        0.585115        0.349633 
        2.60758        0.578892        0.344478 
        2.62325        0.569813        0.339434 
        2.63898        0.565298        0.334474 
        2.65468        0.556411        0.329623 
        2.67044        0.549239        0.324847 
        2.68618        0.543178        0.320177 
        2.70184        0.536554        0.315618 
        2.71755        0.529918        0.311136 
        2.73329        0.523954        0.306735 
        2.74897        0.518698        0.302433 
        2.76462        0.511778        0.298223 
        2.78034        0.506067        0.294076 
        2.79607        0.500926        0.290003 
        2.81179        0.493503        0.286012 
        2.82749        0.489732        0.282101 
        2.84321         0.48489        0.278259 
        2.85893        0.478082        0.274489 
        2.87462        0.472994        0.270796 
        2.89033        0.467169        0.267167 
        2.90605        0.463432        0.263602 
        2.92176        0.457076        0.260103 
        2.93747        0.452519         0.25667 
        2.95318        0.447687        0.253298 
        2.96891         0.44344        0.249986 
        2.98456        0.438952        0.246747 
        3.00023        0.434893        0.243561 
        3.01596        0.428804        0.240421 
        3.03164        0.424893        0.237345 
        3.04738         0.41841        0.234315 
         3.0631         0.41685        0.231338 
        3.07883        0.410682        0.228413 
        3.09456         0.40637        0.225539 
        3.11026        0.403225        0.222719 
        3.12596        0.398071        0.219947 
        3.14163        0.394978        0.217229 
        3.15734          0.3924        0.214551 
        3.17308        0.387245        0.211911 
        3.18879        0.384485        0.209323 
        3.20447        0.378614        0.206782 
         3.2202        0.377052        0.204275 
         3.2359        0.372515        0.201814 
        3.25157        0.368967          0.1994 
        3.26729        0.366555        0.197018 
        3.28304        0.362782         0.19467 
        3.29877        0.358225        0.192363 
        3.31446        0.355848        0.190099 
        3.33014        0.352334        0.187874 
        3.34585        0.350828         0.18568 
        3.36158        0.346466        0.183518 
        3.37727         0.34372        0.181398 
        3.39294        0.340672        0.179313 
        3.40867        0.337105        0.177253 
        3.42439        0.334828        0.175227 
        3.44008        0.332226        0.173236 
        3.45578        0.330126        0.171275 
        3.47153        0.326125        0.169339 
        3.48724        0.324997        0.167437 
        3.50292        0.321959        0.165569 
        3.51859        0.317908         0.16373 
        3.53431        0.315895        0.161914 
        3.55007        0.314258         0.16012 
        3.56577         0.31015        0.158361 
        3.58146        0.307915        0.156629 
        3.59719        0.305692        0.154919 
        3.61292        0.304059        0.153234 
        3.62859        0.299831        0.151582 
        3.64429        0.298385         0.14995 
        3.66003        0.295917        0.148338 
        3.67578        0.293757         0.14675 
        3.69146        0.291419        0.145191 
        3.70712        0.289569        0.143657 
        3.72284        0.287062         0.14214 
        3.73853        0.285508        0.140648 
        3.75422        0.282363        0.139176 
        3.76993         0.28113        0.137724 
        3.78564        0.278698        0.136294 
        3.80137        0.276476        0.134881 
        3.81707        0.275221        0.133492 
        3.83279        0.272149        0.132121 
        3.84853        0.270097        0.130767 
        3.86424        0.268248        0.129434 
        3.87992        0.267033        0.128122 
        3.89561        0.264045        0.126829 
        3.91134        0.263442         0.12555 
        3.92704        0.260473        0.124291 
        3.94273        0.258281         0.12305 
        3.95845        0.256723        0.121823 
        3.97418        0.254935        0.120614 
        3.98988         0.25255        0.119422 
        4.00554        0.250954        0.118249 
        4.02125        0.248935        0.117089 
        4.03698        0.246147        0.115943 
        4.05268        0.244938        0.114815 
        4.06839        0.241738        0.113701 
         4.0841        0.239152        0.112602 
        4.09983        0.236772        0.111516 
        4.11555        0.234651        0.110444 
        4.13124        0.231937         0.10939 
        4.14693        0.230555        0.108349 
        4.16266        0.228213        0.107318 
        4.17839        0.226484        0.106302 
        4.19408        0.224238        0.105301 
        4.20977        0.223107        0.104313 
        4.22551        0.220832        0.103335 
        4.24123        0.219139         0.10237 
        4.25691        0.217406        0.101421 
        4.27259        0.215639        0.100483 
        4.28831         0.21424       0.0995553 
        4.30404        0.211959       0.0986383 
        4.31974         0.21146       0.0977348 
        4.33543        0.209454       0.0968431 
        4.35116        0.207462       0.0959605 
        4.36688        0.206881       0.0950891 
        4.38255        0.205024       0.0942319 
        4.39825        0.204461       0.0933833 
        4.41398        0.202448       0.0925435 
         4.4297        0.201593       0.0917149 
        4.44541        0.200802       0.0908966 
        4.46111         0.19952       0.0900889 
        4.47683        0.198822       0.0892905 
        4.49251        0.197066       0.0885033 
        4.50819         0.19603       0.0877258 
         4.5239        0.195879       0.0869566 
        4.53962        0.194954       0.0861956 
        4.55535        0.193657       0.0854433 
        4.57106        0.193198       0.0847011 
        4.58678        0.192473       0.0839675 
         4.6025        0.191619       0.0832425 
        4.61821          0.1911       0.0825262 
        4.63391        0.190432       0.0818192 
         4.6496        0.189832       0.0811207 
        4.66532        0.189466       0.0804293 
        4.68103         0.18922       0.0797463 
        4.69673         0.18858       0.0790719 
        4.71241        0.188335       0.0784059 
        4.72811        0.187532       0.0777466 
        4.74384        0.187664       0.0770939 
        4.75955        0.187439       0.0764497 
        4.77525        0.187493       0.0758133 
        4.79096        0.186645       0.0751833 
        4.80669        0.186947       0.0745601 
         4.8224        0.186411       0.0739448 
        4.83809        0.186571        0.073337 
        4.85379        0.186663       0.0727357 
         4.8695        0.186456       0.0721406 
        4.88521        0.186064       0.0715525 
        4.90093        0.187076       0.0709708 
        4.91663        0.187009       0.0703961 
        4.93234        0.186548       0.0698271 
        4.94807        0.187123        0.069264 
        4.96377        0.187808       0.0687083 
        4.97943        0.188229       0.0681597 
        4.99514        0.188057       0.0676158 
        5.01086          0.1889       0.0670773 
        5.02654        0.188925       0.0665461 
        5.04227        0.189497       0.0660191 
          5.058        0.189831       0.0654976 
        5.07371        0.191085       0.0649827 
        5.08942        0.191687       0.0644732 
        5.10513           0.192       0.0639692 
        5.12084        0.192578       0.0634703 
        5.13656        0.193372       0.0629768 
        5.15225        0.194133       0.0624894 
        5.16796        0.195407       0.0620064 
        5.18369        0.195255        0.061528 
         5.1994        0.196628       0.0610556 
        5.21509         0.19752       0.0605885 
        5.23079         0.19899       0.0601258 
        5.24649        0.200277       0.0596683 
        5.26217         0.20046       0.0592158 
        5.27788        0.201725       0.0587674 
        5.29359        0.202862       0.0583235 
        5.30933        0.204559       0.0578836 
        5.32504        0.205375        0.057449 
        5.34073        0.206954       0.0570193 
        5.35646        0.207304       0.0565931 
        5.37218        0.208793       0.0561712 
        5.38789         0.21019       0.0557543 
        5.40357        0.212417       0.0553421 
        5.41929         0.21353       0.0549331 
        5.43502         0.21372       0.0545283 
         5.4507          0.2166       0.0541284 
        5.46639        0.217118       0.0537326 
        5.48212        0.219334       0.0533397 
        5.49786        0.221191       0.0529503 
        5.51353        0.223346       0.0525668 
        5.52921        0.224246       0.0521866 
        5.54495        0.226119       0.0518091 
        5.56066        0.228138       0.0514357 
        5.57637        0.230535       0.0510661 
        5.59207        0.231889       0.0507004 
        5.60778        0.234424       0.0503381 
        5.62346        0.236128       0.0499799 
        5.63916        0.237383       0.0496249 
        5.65487        0.239315       0.0492731 
         5.6706        0.241911       0.0489243 
        5.68633        0.244358       0.0485787 
        5.70203        0.246711       0.0482372 
        5.71773        0.248563        0.047899 
        5.73344        0.249664       0.0475639 
        5.74916        0.253237       0.0472317 
        5.76486        0.254492       0.0469031 
        5.78054         0.25666       0.0465782 
        5.79626        0.259405       0.0462554 
          5.812        0.261884       0.0459353 
         5.8277        0.263471       0.0456192 
        5.84339        0.267413       0.0453061 
        5.85911        0.268975       0.0449953 
        5.87484        0.270526       0.0446875 
        5.89053        0.274674       0.0443832 
        5.90623        0.276389       0.0440816 
        5.92195        0.278657       0.0437822 
        5.93767        0.280442       0.0434858 
        5.95336        0.283843       0.0431926 
        5.96905        0.288304       0.0429023 
        5.98476        0.288116       0.0426142 
        6.00048        0.292928       0.0423286 
        6.01617        0.293941        0.042046 
        6.03185        0.296033       0.0417664 
        6.04756        0.299186       0.0414886 
        6.06331         0.30097       0.0412128 
        6.07903        0.303578       0.0409401 
        6.09473        0.307202         0.04067 
        6.11044        0.310186       0.0404022 
        6.12616         0.31215       0.0401368 
        6.14186        0.316138       0.0398741 
        6.15755        0.318259       0.0396137 
        6.17326         0.32201       0.0393555 
        6.18898        0.324522       0.0390994 
        6.20467        0.327046        0.038846 
        6.22036        0.327645        0.038595 
         6.2361        0.331529       0.0383454 
         6.2518        0.335631       0.0380985 
        6.26748        0.335616       0.0378543 
        6.28319        0.339374       0.0376116 
        6.29893        0.341945       0.0373708 
        6.31463        0.346724       0.0371325 
        6.33033        0.347386       0.0368963 
        6.34604         0.35157        0.036662 
        6.36177        0.353342       0.0364296 
        6.37747        0.356785       0.0361996 
