# k  (h/Mpc)    Pcb(k)  (Mpc/h)^3    Pcb_linear(k) (Mpc/h)^3   ShotnoiseSubtracted = true
      0.0200456         9610.44         9780.78 
      0.0350414         7442.33         7669.13 
      0.0492313         5994.65         6076.31 
      0.0637834         5017.02         4941.01 
      0.0800726         3814.21         3732.46 
       0.096163         2851.84         2935.81 
       0.111083         2377.36         2485.16 
       0.126058         2090.13         2065.88 
       0.142273         1751.15         1681.08 
       0.158546         1537.22         1432.09 
        0.17375         1262.51         1245.96 
       0.188953         1181.78         1071.15 
       0.204907          1100.2         927.232 
       0.220756         952.748         819.526 
        0.23588         844.006         727.917 
         0.2514         734.154         644.992 
       0.267535         710.137         575.223 
       0.283568         648.081         516.888 
       0.299022         605.392         466.764 
       0.314451          567.13         423.196 
       0.330372         523.551         384.788 
       0.346141         477.479         351.267 
       0.361624         457.057         321.943 
       0.377134         427.055         296.009 
       0.392932         404.544         272.639 
       0.408854         388.154         251.568 
       0.424564         370.408         232.904 
       0.440253         356.623         216.199 
       0.455999         336.338         201.094 
       0.471626         311.972         187.509 
        0.48727         304.645         175.163 
       0.502856         294.295         163.975 
       0.518488         290.572         153.736 
       0.534347          273.79         144.237 
       0.550082         257.215         135.607 
       0.565732         253.482         127.727 
       0.581496         240.651         120.423 
       0.597222         235.041         113.705 
       0.612804         226.244         107.557 
       0.628434         218.567         101.849 
       0.644267         211.403         96.4897 
       0.660051         208.552         91.5326 
       0.675724         204.446         86.9559 
       0.691403         198.358         82.6916 
       0.707174         189.806         78.6918 
       0.722871         188.213         74.9745 
        0.73838         184.066         71.5385 
       0.754018         178.173         68.2927 
       0.769845         173.439         65.2137 
        0.78569         171.104         62.3221 
       0.801365         166.288         59.6346 
       0.817031         160.661         57.1077 
       0.832809          157.92         54.7116 
       0.848511         154.341          52.464 
       0.864097         151.306         50.3585 
       0.879701         148.263         48.3668 
       0.895507         144.653         46.4598 
       0.911279         142.075         44.6598 
        0.92691         140.039         42.9705 
       0.942635         136.988         41.3597 
       0.958396         136.565         39.8283 
       0.974128         132.555         38.3776 
       0.989692         129.021         37.0139 
        1.00528         126.786         35.7147 
        1.02113         125.797         34.4578 
        1.03692         121.056         33.2664 
        1.05264         120.458         32.1371 
        1.06832         117.773         31.0622 
        1.08405         116.138         30.0338 
        1.09979         115.443         29.0517 
        1.11537         111.621         28.1233 
        1.13105         111.338         27.2302 
        1.14679         110.025         26.3726 
        1.16256          108.33         25.5504 
        1.17828         105.262         24.7661 
        1.19395         104.532         24.0175 
         1.2097         101.893         23.2962 
        1.22537         101.802         22.6081 
          1.241         99.2911         21.9499 
        1.25666         97.4249         21.3164 
        1.27241         96.4074         20.7051 
        1.28819         94.7595         20.1167 
        1.30392         93.4804          19.553 
        1.31957         91.8429         19.0135 
        1.33529         90.4694         18.4924 
        1.35108         89.5108         17.9889 
        1.36674         88.3507         17.5078 
         1.3824         86.8711         17.0448 
        1.39811         85.7916          16.597 
        1.41389         84.4966         16.1636 
        1.42964         83.5623         15.7465 
        1.44531         81.6709         15.3462 
        1.46101         80.7186          14.959 
        1.47667         80.2604         14.5864 
        1.49229         78.6282         14.2275 
        1.50793         77.9212         13.8803 
        1.52367         76.9228         13.5425 
        1.53953         75.7772         13.2137 
        1.55526         74.9722         12.8984 
        1.57092         74.5768         12.5948 
        1.58662         73.0904         12.3002 
        1.60235         72.4082         12.0146 
        1.61809          71.423         11.7379 
        1.63369         70.1618         11.4723 
        1.64941         69.4392         11.2132 
        1.66519         68.3002         10.9611 
        1.68085          67.589         10.7185 
        1.69652         66.5696         10.4833 
        1.71228         66.0244         10.2538 
        1.72806         65.3502          10.031 
        1.74368         64.4206         9.81704 
        1.75933         63.7798         9.60893 
        1.77505         63.0197          9.4059 
        1.79081         62.0081         9.20839 
         1.8065         61.5561          9.0174 
        1.82218         60.5303         8.83201 
        1.83797         60.0339         8.65057 
        1.85367         59.2073         8.47524 
        1.86928         58.7753         8.30584 
        1.88497          57.781         8.14015 
        1.90073         57.1514         7.97837 
        1.91647         56.7679         7.82114 
        1.93218         55.8669          7.6685 
        1.94787         55.2774         7.52015 
        1.96363         54.4114         7.37515 
        1.97935         54.0798         7.23428 
        1.99499         53.2157         7.09789 
        2.01064         53.0929         6.96482 
         2.0264         51.7931         6.83434 
        2.04216         51.3529         6.70727 
        2.05781         50.7865         6.58423 
        2.07353         50.2428         6.46385 
        2.08928         49.5778         6.34622 
        2.10499         49.2347         6.23183 
        2.12065         48.6276         6.12062 
        2.13633         48.4055         6.01202 
        2.15211         47.8102         5.90536 
        2.16785          46.889         5.80159 
        2.18349         46.6536         5.70097 
        2.19916         46.1204         5.60253 
        2.21489         45.6439         5.50608 
        2.23063         44.9789         5.41185 
         2.2463         44.5327         5.32025 
        2.26194         43.8052           5.231 
        2.27765         43.3194         5.14334 
        2.29341         42.8583         5.05746 
        2.30914         42.3226         4.97373 
        2.32486         41.8174         4.89194 
        2.34061         41.4683         4.81185 
        2.35635         41.0779         4.73363 
        2.37203          40.467         4.65742 
        2.38768         40.1322         4.58305 
        2.40339         39.8042         4.51004 
        2.41914         39.4141         4.43845 
        2.43483         38.7131         4.36866 
         2.4505         38.3895          4.3005 
        2.46622          38.092         4.23356 
        2.48195         37.6754         4.16803 
        2.49759          37.213         4.10425 
        2.51328         36.6748         4.04164 
        2.52906         36.4883         3.97994 
        2.54479         35.8904         3.91975 
        2.56049         35.5424         3.86093 
        2.57618         35.1241         3.80337 
        2.59189         34.8543          3.7469 
        2.60758         34.5055         3.69166 
        2.62325         34.0738          3.6376 
        2.63898         33.7812         3.58444 
        2.65468         33.3385         3.53246 
        2.67044         33.0938         3.48128 
        2.68618         32.7152         3.43123 
        2.70184         32.3005         3.38237 
        2.71755         32.1257         3.33434 
        2.73329         31.7128         3.28717 
        2.74897         31.3873         3.24107 
        2.76462         30.9792         3.19595 
        2.78034         30.6947         3.15151 
        2.79607         30.4092         3.10786 
        2.81179         30.1854          3.0651 
        2.82749         29.8965         3.02318 
        2.84321         29.4119           2.982 
        2.85893         29.1537         2.94161 
        2.87462         28.8502         2.90203 
        2.89033         28.6501         2.86314 
        2.90605         28.3395         2.82493 
        2.92176         28.1819         2.78744 
        2.93747          27.727         2.75065 
        2.95318         27.3743         2.71451 
        2.96891         27.1952         2.67901 
        2.98456         26.8689          2.6443 
        3.00023         26.6632         2.61016 
        3.01596         26.3222         2.57651 
        3.03164         26.1043         2.54355 
        3.04738         25.9828         2.51107 
         3.0631         25.6226         2.47917 
        3.07883         25.3569         2.44782 
        3.09456         25.0418         2.41702 
        3.11026         24.8391          2.3868 
        3.12596         24.6203          2.3571 
        3.14163         24.3829         2.32797 
        3.15734         24.1025         2.29927 
        3.17308         23.8804         2.27098 
        3.18879         23.6371         2.24324 
        3.20447         23.4286         2.21601 
         3.2202         23.2103         2.18915 
         3.2359         22.9264         2.16278 
        3.25157         22.8619          2.1369 
        3.26729         22.6118         2.11137 
        3.28304           22.33         2.08621 
        3.29877         22.0152         2.06149 
        3.31446         21.9402         2.03723 
        3.33014         21.6878         2.01338 
        3.34585         21.4726         1.98987 
        3.36158         21.2888          1.9667 
        3.37727         21.0384         1.94398 
        3.39294         20.8856         1.92163 
        3.40867         20.7301         1.89956 
        3.42439         20.4679         1.87784 
        3.44008          20.277         1.85651 
        3.45578         20.1206         1.83549 
        3.47153         19.8611         1.81475 
        3.48724         19.6633         1.79437 
        3.50292         19.5341         1.77435 
        3.51859         19.3432         1.75464 
        3.53431         19.1759         1.73517 
        3.55007          18.958         1.71595 
        3.56577         18.7899          1.6971 
        3.58146         18.6309         1.67854 
        3.59719         18.4289         1.66021 
        3.61292         18.2362         1.64216 
        3.62859         18.1115         1.62445 
        3.64429          17.959         1.60697 
        3.66003          17.822         1.58969 
        3.67578          17.627         1.57267 
        3.69146         17.4441         1.55596 
        3.70712         17.2864         1.53953 
        3.72284         17.2236         1.52327 
        3.73853         16.9908         1.50728 
        3.75422         16.8052          1.4915 
        3.76993         16.6759         1.47595 
        3.78564         16.5302         1.46062 
        3.80137         16.3737         1.44548 
        3.81707         16.2103         1.43059 
        3.83279         16.0676         1.41589 
        3.84853         15.9113         1.40138 
        3.86424         15.8165          1.3871 
        3.87992         15.6357         1.37304 
        3.89561         15.4972         1.35918 
        3.91134         15.3472         1.34548 
        3.92704         15.2292         1.33198 
        3.94273         15.1058         1.31868 
        3.95845         14.9628         1.30554 
        3.97418         14.8383         1.29258 
        3.98988         14.7044          1.2798 
        4.00554         14.5748         1.26724 
        4.02125         14.4383         1.25481 
        4.03698         14.3613         1.24252 
        4.05268         14.1743         1.23043 
        4.06839         14.0496         1.21849 
         4.0841         13.9408         1.20671 
        4.09983         13.8171         1.19508 
        4.11555         13.6653         1.18359 
        4.13124         13.5908          1.1723 
        4.14693         13.4521         1.16114 
        4.16266         13.3598         1.15009 
        4.17839          13.225          1.1392 
        4.19408         13.0868         1.12848 
        4.20977         13.0248         1.11789 
        4.22551         12.9163         1.10741 
        4.24123         12.7907         1.09707 
        4.25691         12.6533         1.08689 
        4.27259         12.5562         1.07684 
        4.28831         12.4361          1.0669 
        4.30404         12.3689         1.05707 
        4.31974         12.2297         1.04739 
        4.33543         12.1278         1.03784 
        4.35116         12.0606         1.02838 
        4.36688          11.924         1.01904 
        4.38255         11.8418         1.00985 
        4.39825         11.7191         1.00076 
        4.41398         11.6955        0.991757 
         4.4297         11.5436        0.982878 
        4.44541          11.425        0.974108 
        4.46111         11.3577        0.965453 
        4.47683         11.2513        0.956896 
        4.49251         11.1672         0.94846 
        4.50819         11.0912        0.940128 
         4.5239         11.0229        0.931884 
        4.53962         10.8828        0.923729 
        4.55535         10.8156        0.915667 
        4.57106         10.7188        0.907713 
        4.58678         10.5978        0.899852 
         4.6025         10.5324        0.892082 
        4.61821         10.4449        0.884405 
        4.63391         10.3651        0.876828 
         4.6496         10.2933        0.869343 
        4.66532          10.197        0.861934 
        4.68103         10.1255        0.854615 
        4.69673          10.026        0.847387 
        4.71241         9.92427         0.84025 
        4.72811         9.85798        0.833184 
        4.74384         9.79864        0.826189 
        4.75955         9.71179        0.819286 
        4.77525         9.62567        0.812465 
        4.79096         9.57662        0.805714 
        4.80669         9.49399        0.799036 
         4.8224         9.41388        0.792441 
        4.83809         9.33388        0.785928 
        4.85379         9.26587        0.779484 
         4.8695         9.21447        0.773107 
        4.88521         9.11085        0.766804 
        4.90093         9.03872         0.76057 
        4.91663         8.98278        0.754411 
        4.93234         8.91219        0.748313 
        4.94807         8.84609        0.742279 
        4.96377         8.75947        0.736323 
        4.97943         8.68937        0.730445 
        4.99514          8.6392        0.724616 
        5.01086         8.58204        0.718845 
        5.02654         8.51277        0.713153 
        5.04227         8.44328        0.707505 
          5.058         8.35427        0.701915 
        5.07371          8.3166        0.696398 
        5.08942         8.25117        0.690938 
        5.10513         8.19461        0.685536 
        5.12084         8.12805         0.68019 
        5.13656         8.06515        0.674902 
        5.15225         8.00367        0.669678 
        5.16796         7.95433        0.664502 
        5.18369         7.89648        0.659375 
         5.1994         7.81458        0.654312 
        5.21509         7.75435        0.649307 
        5.23079         7.71444        0.644348 
        5.24649         7.64499        0.639445 
        5.26217         7.59676        0.634596 
        5.27788         7.52646         0.62979 
        5.29359          7.4718        0.625034 
        5.30933         7.42527        0.620319 
        5.32504         7.37085        0.615661 
        5.34073         7.32037        0.611057 
        5.35646         7.26099        0.606489 
        5.37218         7.22094        0.601968 
        5.38789         7.17349          0.5975 
        5.40357         7.11173        0.593083 
        5.41929         7.06143          0.5887 
        5.43502         6.99936        0.584361 
         5.4507         6.96134        0.580076 
        5.46639         6.92276        0.575834 
        5.48212         6.86475        0.571624 
        5.49786         6.83659        0.567451 
        5.51353         6.76391         0.56334 
        5.52921         6.72456        0.559266 
        5.54495         6.66279         0.55522 
        5.56066         6.61775        0.551219 
        5.57637         6.56373        0.547258 
        5.59207         6.54505        0.543339 
        5.60778          6.4633        0.539457 
        5.62346         6.43217        0.535618 
        5.63916         6.38326        0.531813 
        5.65487         6.35053        0.528043 
         5.6706         6.29785        0.524305 
        5.68633         6.24998        0.520602 
        5.70203         6.21894        0.516942 
        5.71773         6.17798        0.513318 
        5.73344         6.11228        0.509727 
        5.74916         6.09367        0.506166 
        5.76486         6.05118        0.502645 
        5.78054         6.00755        0.499163 
        5.79626         5.95771        0.495703 
          5.812         5.91609        0.492274 
         5.8277         5.87638        0.488886 
        5.84339         5.84802        0.485531 
        5.85911         5.80326          0.4822 
        5.87484         5.77318        0.478901 
        5.89053         5.71284         0.47564 
        5.90623         5.68539        0.472407 
        5.92195         5.63867        0.469199 
        5.93767         5.60585        0.466023 
        5.95336         5.56389        0.462881 
        5.96905         5.53613        0.459769 
        5.98476         5.49941        0.456682 
        6.00048         5.45835        0.453621 
        6.01617         5.43266        0.450593 
        6.03185         5.38989        0.447597 
        6.04756         5.35485         0.44462 
        6.06331         5.30683        0.441664 
        6.07903         5.28976        0.438741 
        6.09473         5.25383        0.435847 
        6.11044          5.2156        0.432977 
        6.12616         5.18143        0.430133 
        6.14186          5.1424        0.427317 
        6.15755         5.11643        0.424527 
        6.17326         5.07771        0.421759 
        6.18898         5.03863        0.419015 
        6.20467         5.00885          0.4163 
        6.22036         4.97586        0.413609 
         6.2361         4.94582        0.410935 
         6.2518         4.91747        0.408289 
        6.26748         4.88116        0.405672 
        6.28319          4.8483        0.403071 
        6.29893         4.82163         0.40049 
        6.31463         4.80077        0.397936 
        6.33033         4.75735        0.395405 
        6.34604         4.73346        0.392895 
        6.36177         4.71303        0.390404 
        6.37747         4.68318        0.387939 
