# k  (h/Mpc)    Pcb(k)  (Mpc/h)^3    Pcb_linear(k) (Mpc/h)^3   ShotnoiseSubtracted = true
      0.0200456         26509.3         27203.3 
      0.0350414         20117.5         21330.2 
      0.0492313         16255.3         16900.1 
      0.0637834         13873.7         13742.4 
      0.0800726         10534.1         10381.1 
       0.096163         7706.54         8165.39 
       0.111083          6490.7         6911.99 
       0.126058         5760.98         5745.83 
       0.142273          4890.5          4675.6 
       0.158546         4543.79         3983.06 
        0.17375         3702.94          3465.4 
       0.188953         3589.62         2979.19 
       0.204907         3364.57         2578.91 
       0.220756         2968.93         2279.35 
        0.23588         2687.71         2024.56 
         0.2514         2366.35         1793.92 
       0.267535         2379.93         1599.87 
       0.283568         2161.98         1437.62 
       0.299022         2067.67         1298.21 
       0.314451         1968.95         1177.04 
       0.330372         1798.83         1070.21 
       0.346141         1788.45         976.979 
       0.361624         1718.13         895.421 
       0.377134         1612.29          823.29 
       0.392932         1547.88         758.293 
       0.408854         1520.06         699.687 
       0.424564         1403.71         647.778 
       0.440253         1375.49         601.315 
       0.455999            1365         559.304 
       0.471626         1308.22         521.519 
        0.48727         1265.32         487.181 
       0.502856         1210.98         456.064 
       0.518488         1222.95         427.586 
       0.534347         1142.45         401.167 
       0.550082         1134.38         377.165 
       0.565732          1114.9         355.247 
       0.581496         1068.23         334.932 
       0.597222         1039.72         316.249 
       0.612804         1027.13         299.149 
       0.628434         1000.94         283.272 
       0.644267         976.073         268.367 
       0.660051         957.534          254.58 
       0.675724         949.719         241.851 
       0.691403         923.824          229.99 
       0.707174         892.257         218.866 
       0.722871         869.831         208.527 
        0.73838         857.975          198.97 
       0.754018         844.686         189.943 
       0.769845         829.933         181.379 
        0.78569         819.204         173.337 
       0.801365          795.93         165.862 
       0.817031         784.106         158.834 
       0.832809         771.055         152.169 
       0.848511         755.124         145.918 
       0.864097         732.417         140.062 
       0.879701         720.669         134.523 
       0.895507         718.231         129.219 
       0.911279         707.756         124.213 
        0.92691         692.096         119.514 
       0.942635         672.304         115.034 
       0.958396         663.073         110.775 
       0.974128         654.891          106.74 
       0.989692         645.321         102.947 
        1.00528         623.785         99.3334 
        1.02113         624.617         95.8376 
        1.03692         609.311         92.5239 
        1.05264         599.122         89.3829 
        1.06832         587.306         86.3933 
        1.08405         577.795         83.5332 
        1.09979         569.411         80.8015 
        1.11537         560.977         78.2195 
        1.13105         553.532         75.7355 
        1.14679         541.318         73.3502 
        1.16256         531.191         71.0634 
        1.17828         527.297         68.8821 
        1.19395         517.192            66.8 
         1.2097         503.259         64.7938 
        1.22537         497.482         62.8799 
          1.241         488.043         61.0494 
        1.25666         484.815         59.2875 
        1.27241         474.469         57.5871 
        1.28819         461.746         55.9507 
        1.30392         458.996         54.3829 
        1.31957         448.246         52.8823 
        1.33529         444.679         51.4331 
        1.35108         435.152         50.0326 
        1.36674         428.127         48.6945 
         1.3824         423.494         47.4066 
        1.39811         413.917         46.1612 
        1.41389         410.207         44.9559 
        1.42964         405.758         43.7959 
        1.44531         401.308         42.6825 
        1.46101         391.967         41.6056 
        1.47667         383.914         40.5692 
        1.49229         381.651          39.571 
        1.50793         369.736         38.6053 
        1.52367         369.772         37.6657 
        1.53953         359.315         36.7512 
        1.55526         358.949         35.8744 
        1.57092         355.566         35.0299 
        1.58662         347.922         34.2107 
        1.60235         342.523         33.4162 
        1.61809          338.19         32.6466 
        1.63369         331.784          31.908 
        1.64941           325.4         31.1872 
        1.66519         322.666          30.486 
        1.68085         319.245         29.8115 
        1.69652         315.112         29.1572 
        1.71228         306.982         28.5188 
        1.72806         303.709         27.8992 
        1.74368         297.922         27.3042 
        1.75933         295.375         26.7254 
        1.77505         290.084         26.1607 
        1.79081         287.358         25.6113 
         1.8065         281.775         25.0801 
        1.82218         278.978         24.5645 
        1.83797         275.695         24.0599 
        1.85367         271.147         23.5722 
        1.86928         265.813          23.101 
        1.88497          264.06         22.6402 
        1.90073         259.588         22.1903 
        1.91647         256.135          21.753 
        1.93218         252.426         21.3284 
        1.94787         249.138         20.9158 
        1.96363         246.117         20.5125 
        1.97935         241.579         20.1207 
        1.99499         238.732         19.7414 
        2.01064         235.454         19.3713 
         2.0264         232.625         19.0084 
        2.04216         230.924         18.6549 
        2.05781         227.368         18.3127 
        2.07353         223.435         17.9779 
        2.08928         219.695         17.6508 
        2.10499         217.111         17.3326 
        2.12065          214.41         17.0233 
        2.13633         212.414         16.7212 
        2.15211         209.292         16.4246 
        2.16785          207.35          16.136 
        2.18349         204.517         15.8561 
        2.19916         200.773         15.5823 
        2.21489         199.701         15.3141 
        2.23063         196.365          15.052 
         2.2463         192.984         14.7972 
        2.26194         190.976          14.549 
        2.27765         187.572         14.3052 
        2.29341         185.649         14.0663 
        2.30914         183.006         13.8334 
        2.32486         182.212          13.606 
        2.34061         177.836         13.3832 
        2.35635         177.447         13.1657 
        2.37203         174.238         12.9537 
        2.38768         171.574         12.7469 
        2.40339          170.45         12.5438 
        2.41914          168.53         12.3447 
        2.43483          165.99         12.1506 
         2.4505         164.139          11.961 
        2.46622         162.267         11.7748 
        2.48195         160.016         11.5926 
        2.49759         158.712         11.4152 
        2.51328         156.347          11.241 
        2.52906          154.68         11.0694 
        2.54479         153.212          10.902 
        2.56049         151.011         10.7384 
        2.57618         149.588         10.5783 
        2.59189         147.497         10.4213 
        2.60758         145.304         10.2676 
        2.62325         143.943         10.1173 
        2.63898         142.153         9.96942 
        2.65468         140.926         9.82483 
        2.67044         139.556         9.68249 
        2.68618         137.727          9.5433 
        2.70184         135.876         9.40741 
        2.71755         134.451         9.27382 
        2.73329         132.242         9.14263 
        2.74897         131.544          9.0144 
        2.76462         129.952         8.88891 
        2.78034         128.574          8.7653 
        2.79607          127.09         8.64391 
        2.81179         126.105         8.52496 
        2.82749         124.453         8.40838 
        2.84321         122.299         8.29386 
        2.85893         121.154          8.1815 
        2.87462         119.901         8.07142 
        2.89033         118.291         7.96326 
        2.90605          117.68         7.85699 
        2.92176         115.789         7.75271 
        2.93747         114.658         7.65039 
        2.95318         113.752         7.54988 
        2.96891         112.374         7.45114 
        2.98456          110.99          7.3546 
        3.00023         110.279         7.25964 
        3.01596         108.762         7.16605 
        3.03164          107.64         7.07438 
        3.04738         106.486         6.98405 
         3.0631         105.348         6.89533 
        3.07883         104.075         6.80814 
        3.09456         102.807         6.72248 
        3.11026         102.579         6.63842 
        3.12596         100.891         6.55581 
        3.14163         99.8384         6.47479 
        3.15734         98.9937         6.39496 
        3.17308         97.9283         6.31628 
        3.18879         96.6384         6.23914 
        3.20447          95.752          6.1634 
         3.2202         94.7271         6.08868 
         3.2359          93.911         6.01534 
        3.25157         92.7249         5.94337 
        3.26729          91.691         5.87237 
        3.28304         91.0577         5.80239 
        3.29877          90.054         5.73364 
        3.31446         88.9398         5.66615 
        3.33014         88.4646         5.59981 
        3.34585         87.3628         5.53443 
        3.36158          86.432            5.47 
        3.37727         85.3699         5.40679 
        3.39294         84.6141         5.34465 
        3.40867         83.7516         5.28325 
        3.42439         82.7927         5.22285 
        3.44008         81.9113         5.16352 
        3.45578         81.2093         5.10506 
        3.47153         80.6376         5.04738 
        3.48724         79.5537         4.99069 
        3.50292         79.0381           4.935 
        3.51859          78.202         4.88019 
        3.53431         77.4155         4.82605 
        3.55007         76.6624         4.77259 
        3.56577         75.9197         4.72015 
        3.58146         75.4811         4.66852 
        3.59719         74.4407         4.61755 
        3.61292         73.6533         4.56735 
        3.62859         72.9298         4.51809 
        3.64429         72.2107         4.46946 
        3.66003         71.6235          4.4214 
        3.67578          70.853         4.37406 
        3.69146         70.3832          4.3276 
        3.70712         69.6836         4.28189 
        3.72284         68.9635         4.23667 
        3.73853         68.2917         4.19219 
        3.75422         67.6384         4.14833 
        3.76993         67.1909         4.10505 
        3.78564         66.2539         4.06242 
        3.80137         65.7708         4.02031 
        3.81707         65.2788          3.9789 
        3.83279         64.4624         3.93803 
        3.84853         63.9936         3.89767 
        3.86424         63.4891         3.85796 
        3.87992          62.956         3.81885 
        3.89561         62.2052         3.78029 
        3.91134         61.5616         3.74218 
        3.92704         61.1769         3.70464 
        3.94273         60.5411         3.66765 
        3.95845         60.0786          3.6311 
        3.97418         59.3156         3.59504 
        3.98988         58.9656         3.55952 
        4.00554         58.4033         3.52458 
        4.02125         57.9437            3.49 
        4.03698         57.3698         3.45583 
        4.05268         56.8967          3.4222 
        4.06839         56.3647         3.38899 
         4.0841         55.8832         3.35624 
        4.09983          55.371         3.32387 
        4.11555         54.8033         3.29193 
        4.13124         54.2955         3.26051 
        4.14693         53.9458         3.22947 
        4.16266         53.3791         3.19876 
        4.17839         52.9907         3.16847 
        4.19408         52.4664         3.13864 
        4.20977         52.0925         3.10918 
        4.22551         51.6198         3.08003 
        4.24123         51.0866         3.05128 
        4.25691         50.7559         3.02298 
        4.27259         50.1562         2.99503 
        4.28831         49.9155         2.96737 
        4.30404         49.3739         2.94004 
        4.31974           48.97         2.91311 
        4.33543         48.5992         2.88653 
        4.35116         48.0175         2.86023 
        4.36688         47.7302         2.83425 
        4.38255         47.2917          2.8087 
        4.39825         46.8738         2.78341 
        4.41398         46.4433         2.75838 
         4.4297         46.1551         2.73368 
        4.44541         45.7157         2.70929 
        4.46111         45.3702         2.68522 
        4.47683         44.8393         2.66142 
        4.49251         44.7073         2.63795 
        4.50819         44.2653         2.61478 
         4.5239         43.8578         2.59185 
        4.53962         43.4219         2.56917 
        4.55535         43.2418         2.54675 
        4.57106         42.9508         2.52463 
        4.58678         42.4811         2.50276 
         4.6025         42.0234         2.48115 
        4.61821         41.6727          2.4598 
        4.63391          41.407         2.43873 
         4.6496         40.9374         2.41791 
        4.66532         40.6689          2.3973 
        4.68103         40.3842         2.37694 
        4.69673         40.0786         2.35684 
        4.71241         39.7026         2.33699 
        4.72811         39.4684         2.31734 
        4.74384         39.1298         2.29788 
        4.75955         38.7792         2.27868 
        4.77525         38.4596         2.25971 
        4.79096         38.1595         2.24093 
        4.80669         37.8673         2.22236 
         4.8224         37.6146         2.20402 
        4.83809         37.1807          2.1859 
        4.85379           36.91         2.16798 
         4.8695          36.662         2.15024 
        4.88521         36.3274         2.13271 
        4.90093         35.9883         2.11537 
        4.91663            35.8         2.09824 
        4.93234         35.5047         2.08129 
        4.94807         35.1879          2.0645 
        4.96377         34.9188         2.04794 
        4.97943         34.6255         2.03159 
        4.99514         34.4056         2.01538 
        5.01086         34.1006         1.99933 
        5.02654         33.8742         1.98349 
        5.04227         33.5658         1.96779 
          5.058         33.3407         1.95224 
        5.07371          33.072         1.93689 
        5.08942         32.8244         1.92171 
        5.10513         32.5788         1.90668 
        5.12084         32.3302         1.89181 
        5.13656           32.09         1.87711 
        5.15225           31.81         1.86258 
        5.16796         31.5523         1.84818 
        5.18369         31.3279         1.83392 
         5.1994         31.1394         1.81984 
        5.21509         30.8464         1.80592 
        5.23079         30.6381         1.79213 
        5.24649          30.345         1.77849 
        5.26217         30.1288           1.765 
        5.27788         29.9368         1.75164 
        5.29359          29.704         1.73841 
        5.30933         29.4592          1.7253 
        5.32504         29.2417         1.71234 
        5.34073         29.0328         1.69953 
        5.35646         28.8078         1.68683 
        5.37218         28.5736         1.67426 
        5.38789         28.3551         1.66183 
        5.40357         28.1097         1.64954 
        5.41929         27.9147         1.63735 
        5.43502         27.7469         1.62529 
         5.4507         27.5515         1.61337 
        5.46639         27.3389         1.60157 
        5.48212          27.178         1.58986 
        5.49786         26.9296         1.57825 
        5.51353         26.7828         1.56682 
        5.52921         26.5304         1.55549 
        5.54495         26.4405         1.54424 
        5.56066         26.1846         1.53311 
        5.57637         25.9826         1.52209 
        5.59207         25.7982         1.51119 
        5.60778         25.5551         1.50039 
        5.62346         25.3893         1.48972 
        5.63916         25.2484         1.47913 
        5.65487         25.0499         1.46865 
         5.6706         24.8088         1.45825 
        5.68633         24.6678         1.44795 
        5.70203         24.4972         1.43777 
        5.71773         24.3402         1.42769 
        5.73344         24.1737          1.4177 
        5.74916         23.9534          1.4078 
        5.76486         23.8185         1.39801 
        5.78054         23.6308         1.38832 
        5.79626         23.5092          1.3787 
          5.812         23.3066         1.36916 
         5.8277         23.1151         1.35974 
        5.84339         23.0001         1.35041 
        5.85911         22.8201         1.34114 
        5.87484         22.6547         1.33197 
        5.89053         22.5203          1.3229 
        5.90623         22.3527         1.31391 
        5.92195         22.1981         1.30499 
        5.93767         22.0242         1.29615 
        5.95336         21.8723         1.28741 
        5.96905         21.7114         1.27876 
        5.98476         21.5669         1.27017 
        6.00048          21.437         1.26166 
        6.01617         21.2817         1.25324 
        6.03185          21.138          1.2449 
        6.04756         20.9558         1.23662 
        6.06331         20.8484          1.2284 
        6.07903         20.6681         1.22027 
        6.09473         20.5345         1.21222 
        6.11044         20.3689         1.20424 
        6.12616         20.2618         1.19633 
        6.14186         20.1047          1.1885 
        6.15755          19.963         1.18074 
        6.17326         19.8252         1.17304 
        6.18898         19.7022         1.16541 
        6.20467         19.5684         1.15786 
        6.22036         19.4174         1.15037 
         6.2361         19.2993         1.14294 
         6.2518         19.1639         1.13558 
        6.26748         19.0006          1.1283 
        6.28319         18.8903         1.12106 
        6.29893         18.7812         1.11388 
        6.31463         18.6452         1.10678 
        6.33033         18.5075         1.09974 
        6.34604          18.388         1.09276 
        6.36177         18.2473         1.08583 
        6.37747         18.1762         1.07897 
