# k  (h/Mpc)    Pcb(k)  (Mpc/h)^3    Pcb_linear(k) (Mpc/h)^3   ShotnoiseSubtracted = true
      0.0200456         17558.4         17942.4 
      0.0350414         13453.3         14068.7 
      0.0492313         10862.1         11146.7 
      0.0637834         9186.36         9064.05 
      0.0800726         6978.31         6847.02 
       0.096163         5151.33         5385.62 
       0.111083         4306.33         4558.91 
       0.126058          3816.7         3789.76 
       0.142273         3219.74         3083.87 
       0.158546         2913.74         2627.09 
        0.17375         2367.69         2285.66 
       0.188953         2267.77         1964.97 
       0.204907         2122.65         1700.96 
       0.220756         1860.02         1503.38 
        0.23588         1659.53         1335.33 
         0.2514         1443.82         1183.21 
       0.267535         1438.87         1055.22 
       0.283568         1308.36         948.207 
       0.299022         1235.97         856.257 
       0.314451         1178.34         776.333 
       0.330372         1085.15         705.876 
       0.346141         1031.42         644.382 
       0.361624         988.604         590.589 
       0.377134         919.911         543.014 
       0.392932          888.64         500.144 
       0.408854         864.876          461.49 
       0.424564         807.197         427.252 
       0.440253         792.214         396.607 
       0.455999         760.452         368.898 
       0.471626         726.269         343.977 
        0.48727         700.437         321.328 
       0.502856         681.631         300.805 
       0.518488         672.827         282.021 
       0.534347          630.52         264.596 
       0.550082         611.857         248.765 
       0.565732         611.653         234.309 
       0.581496         575.744          220.91 
       0.597222         567.493         208.587 
       0.612804         553.972         197.308 
       0.628434         536.703         186.836 
       0.644267         522.372         177.006 
       0.660051         505.041         167.912 
       0.675724         502.337         159.517 
       0.691403         484.994         151.694 
       0.707174          469.07         144.357 
       0.722871         464.571         137.537 
        0.73838         456.225         131.234 
       0.754018          443.93          125.28 
       0.769845         434.043         119.631 
        0.78569         428.198         114.327 
       0.801365         416.163         109.397 
       0.817031         404.664         104.761 
       0.832809         401.142         100.366 
       0.848511         391.382         96.2427 
       0.864097         381.062         92.3802 
       0.879701         376.179         88.7267 
       0.895507         371.794         85.2283 
       0.911279         360.182         81.9264 
        0.92691         355.327         78.8275 
       0.942635         347.656         75.8724 
       0.958396         338.645         73.0632 
       0.974128         333.796          70.402 
       0.989692         328.916         67.9002 
        1.00528         322.497         65.5169 
        1.02113         320.079         63.2113 
        1.03692         311.375         61.0257 
        1.05264         308.394         58.9539 
        1.06832         300.746         56.9821 
        1.08405         295.629         55.0957 
        1.09979         291.267         53.2939 
        1.11537         285.824         51.5909 
        1.13105          279.46         49.9526 
        1.14679         276.485         48.3793 
        1.16256         269.654         46.8711 
        1.17828         267.672         45.4323 
        1.19395         262.094          44.059 
         1.2097          259.75         42.7358 
        1.22537         252.849         41.4735 
          1.241         252.343         40.2661 
        1.25666         245.484          39.104 
        1.27241         243.125         37.9825 
        1.28819         238.923         36.9032 
        1.30392         233.781         35.8691 
        1.31957         233.245         34.8794 
        1.33529         228.457         33.9235 
        1.35108         223.325         32.9998 
        1.36674          221.35         32.1172 
         1.3824         218.989         31.2678 
        1.39811         216.536         30.4464 
        1.41389         213.244         29.6514 
        1.42964         209.992         28.8863 
        1.44531         206.626          28.152 
        1.46101         204.546         27.4417 
        1.47667         200.108         26.7581 
        1.49229         198.085         26.0997 
        1.50793          194.74         25.4627 
        1.52367         192.196          24.843 
        1.53953         189.049         24.2398 
        1.55526         184.964         23.6615 
        1.57092         184.236         23.1046 
        1.58662         181.142         22.5642 
        1.60235         178.543         22.0402 
        1.61809         176.537         21.5326 
        1.63369         173.429         21.0455 
        1.64941          169.87           20.57 
        1.66519         168.848         20.1076 
        1.68085         167.085         19.6626 
        1.69652         163.695         19.2311 
        1.71228         160.954         18.8101 
        1.72806         159.141         18.4013 
        1.74368         157.041         18.0089 
        1.75933         154.841         17.6271 
        1.77505         153.007         17.2547 
        1.79081         151.801         16.8924 
         1.8065         149.385          16.542 
        1.82218         146.669         16.2019 
        1.83797         145.632         15.8691 
        1.85367         143.367         15.5474 
        1.86928         141.318         15.2367 
        1.88497         139.141         14.9327 
        1.90073         138.044         14.6359 
        1.91647         136.166         14.3475 
        1.93218         134.167         14.0675 
        1.94787         132.543         13.7954 
        1.96363         130.154         13.5294 
        1.97935         128.759         13.2709 
        1.99499         126.802         13.0207 
        2.01064         125.723         12.7766 
         2.0264         123.629         12.5373 
        2.04216         122.215         12.3042 
        2.05781         121.079         12.0785 
        2.07353         119.539         11.8576 
        2.08928         117.313         11.6418 
        2.10499         115.504          11.432 
        2.12065         114.454          11.228 
        2.13633          113.62         11.0288 
        2.15211         111.211         10.8331 
        2.16785         109.404         10.6428 
        2.18349          108.58         10.4582 
        2.19916         107.275         10.2776 
        2.21489         106.117         10.1007 
        2.23063         104.236         9.92779 
         2.2463         102.816         9.75975 
        2.26194         102.042         9.59602 
        2.27765         100.811         9.43521 
        2.29341         99.5364         9.27768 
        2.30914         98.3142         9.12407 
        2.32486         97.4169         8.97403 
        2.34061         95.9787         8.82712 
        2.35635         94.6651         8.68363 
        2.37203         93.5109         8.54383 
        2.38768         92.3369          8.4074 
        2.40339         91.6361         8.27346 
        2.41914         90.3723         8.14212 
        2.43483         89.0008         8.01411 
         2.4505         88.1155         7.88906 
        2.46622         86.8176         7.76626 
        2.48195         85.8653         7.64607 
        2.49759         84.8008         7.52906 
        2.51328         83.9149          7.4142 
        2.52906         82.4335         7.30101 
        2.54479         81.8329          7.1906 
        2.56049         80.8953          7.0827 
        2.57618         79.9878         6.97711 
        2.59189         78.9329         6.87351 
        2.60758         78.2989         6.77218 
        2.62325         76.9895         6.67301 
        2.63898         76.0821         6.57549 
        2.65468         75.4829         6.48013 
        2.67044         74.2992         6.38624 
        2.68618         73.3989         6.29444 
        2.70184         73.0249         6.20481 
        2.71755         72.3264          6.1167 
        2.73329         71.1078         6.03017 
        2.74897         70.4135         5.94559 
        2.76462         69.4629         5.86283 
        2.78034         68.8191          5.7813 
        2.79607         67.7599         5.70123 
        2.81179         67.0749         5.62278 
        2.82749          66.324         5.54589 
        2.84321         65.8265         5.47035 
        2.85893         64.8874         5.39624 
        2.87462          64.038         5.32363 
        2.89033         63.3173          5.2523 
        2.90605         62.5968          5.1822 
        2.92176         62.1278         5.11343 
        2.93747         61.4666         5.04594 
        2.95318         60.6919         4.97965 
        2.96891         60.1888         4.91452 
        2.98456         59.4585         4.85085 
        3.00023         58.7408         4.78821 
        3.01596         58.2732         4.72648 
        3.03164         57.3503         4.66602 
        3.04738         56.8539         4.60644 
         3.0631         56.3337         4.54792 
        3.07883         55.6241         4.49042 
        3.09456         55.0737         4.43392 
        3.11026          54.261         4.37848 
        3.12596         53.7882         4.32399 
        3.14163         53.2256         4.27055 
        3.15734         52.7428          4.2179 
        3.17308         52.1687           4.166 
        3.18879         51.6078         4.11512 
        3.20447         50.7762         4.06517 
         3.2202         50.5589         4.01589 
         3.2359          49.857         3.96751 
        3.25157         49.4927         3.92005 
        3.26729         49.0388         3.87322 
        3.28304         48.4451         3.82706 
        3.29877         47.9155         3.78171 
        3.31446         47.5075          3.7372 
        3.33014         47.0373         3.69345 
        3.34585         46.4907         3.65033 
        3.36158          46.128         3.60783 
        3.37727         45.6211         3.56614 
        3.39294         45.0757         3.52515 
        3.40867         44.6574         3.48465 
        3.42439         44.2113         3.44482 
        3.44008         43.7449         3.40568 
        3.45578         43.2153         3.36712 
        3.47153          42.764         3.32908 
        3.48724         42.4134         3.29169 
        3.50292         42.0307         3.25496 
        3.51859         41.6309         3.21881 
        3.53431         41.1388          3.1831 
        3.55007          40.705         3.14784 
        3.56577         40.4638         3.11325 
        3.58146         39.8957          3.0792 
        3.59719         39.4732         3.04558 
        3.61292          39.083         3.01247 
        3.62859           38.85         2.97998 
        3.64429         38.5584         2.94791 
        3.66003          37.997         2.91621 
        3.67578         37.5723         2.88498 
        3.69146         37.2472         2.85434 
        3.70712         37.0045         2.82419 
        3.72284         36.5252         2.79437 
        3.73853         36.1978         2.76503 
        3.75422         35.8264          2.7361 
        3.76993          35.597         2.70755 
        3.78564         35.3004         2.67943 
        3.80137         34.9196         2.65166 
        3.81707         34.5213         2.62435 
        3.83279         34.3784         2.59739 
        3.84853         33.8876         2.57077 
        3.86424         33.4993         2.54458 
        3.87992         33.2908         2.51879 
        3.89561         33.0119         2.49335 
        3.91134         32.5972         2.46822 
        3.92704         32.4404         2.44346 
        3.94273         32.0531         2.41906 
        3.95845         31.7775         2.39495 
        3.97418         31.6004         2.37117 
        3.98988         31.2112         2.34774 
        4.00554          30.889         2.32469 
        4.02125         30.6685         2.30189 
        4.03698         30.3789         2.27935 
        4.05268         30.2069         2.25717 
        4.06839         29.8253         2.23527 
         4.0841         29.5733         2.21366 
        4.09983         29.3546         2.19231 
        4.11555         29.0574         2.17125 
        4.13124         28.6914         2.15052 
        4.14693         28.4392         2.13005 
        4.16266         28.2657          2.1098 
        4.17839         28.0027         2.08982 
        4.19408         27.7615         2.07014 
        4.20977         27.5378         2.05071 
        4.22551         27.3561         2.03148 
        4.24123         27.0093         2.01252 
        4.25691         26.8484         1.99386 
        4.27259         26.5563         1.97542 
        4.28831         26.2531         1.95718 
        4.30404         26.0927         1.93915 
        4.31974         25.9189         1.92139 
        4.33543          25.648         1.90386 
        4.35116         25.4508         1.88651 
        4.36688         25.2201         1.86938 
        4.38255         24.9738         1.85253 
        4.39825         24.7835         1.83584 
        4.41398         24.5172         1.81933 
         4.4297         24.3691         1.80304 
        4.44541         24.0775         1.78696 
        4.46111         23.9295         1.77108 
        4.47683         23.7509         1.75538 
        4.49251         23.4982         1.73991 
        4.50819          23.314         1.72462 
         4.5239          23.147          1.7095 
        4.53962         22.8895         1.69454 
        4.55535         22.7054         1.67975 
        4.57106         22.5259         1.66516 
        4.58678         22.3728         1.65074 
         4.6025         22.1987         1.63648 
        4.61821         22.0207          1.6224 
        4.63391         21.7989          1.6085 
         4.6496         21.6605         1.59477 
        4.66532         21.4163         1.58118 
        4.68103         21.2316         1.56775 
        4.69673         21.0906         1.55449 
        4.71241         20.9687          1.5414 
        4.72811         20.7549         1.52844 
        4.74384         20.5982         1.51561 
        4.75955         20.4253         1.50294 
        4.77525         20.2275         1.49043 
        4.79096         20.0834         1.47804 
        4.80669         19.9907         1.46579 
         4.8224         19.7532          1.4537 
        4.83809         19.5622         1.44175 
        4.85379         19.4269         1.42993 
         4.8695         19.2819         1.41823 
        4.88521         19.1103         1.40667 
        4.90093         19.0232         1.39523 
        4.91663         18.7839         1.38393 
        4.93234         18.6274         1.37275 
        4.94807         18.5377         1.36168 
        4.96377         18.3974         1.35075 
        4.97943         18.2607         1.33997 
        4.99514         18.0547         1.32927 
        5.01086         17.9474         1.31869 
        5.02654         17.8129         1.30825 
        5.04227         17.6438         1.29788 
          5.058         17.4871         1.28763 
        5.07371         17.4096         1.27751 
        5.08942         17.2897         1.26749 
        5.10513         17.1479         1.25758 
        5.12084         16.9392         1.24778 
        5.13656         16.8697         1.23808 
        5.15225         16.7471         1.22849 
        5.16796         16.6191           1.219 
        5.18369         16.4755         1.20959 
         5.1994         16.3268         1.20031 
        5.21509         16.1847         1.19112 
        5.23079         16.0898         1.18203 
        5.24649         15.9801         1.17303 
        5.26217         15.8419         1.16414 
        5.27788         15.6873         1.15532 
        5.29359         15.5968          1.1466 
        5.30933         15.4841         1.13795 
        5.32504         15.3635          1.1294 
        5.34073         15.2769         1.12095 
        5.35646         15.1422         1.11258 
        5.37218         15.0041         1.10428 
        5.38789         14.8684         1.09609 
        5.40357          14.789         1.08798 
        5.41929         14.6765         1.07994 
        5.43502          14.585         1.07198 
         5.4507         14.4724         1.06412 
        5.46639         14.3487         1.05634 
        5.48212         14.2551         1.04862 
        5.49786         14.1618         1.04096 
        5.51353         14.0368         1.03342 
        5.52921         13.9407         1.02595 
        5.54495          13.877         1.01853 
        5.56066         13.7561         1.01119 
        5.57637         13.6515         1.00392 
        5.59207         13.5394         0.99673 
        5.60778         13.4669        0.989608 
        5.62346         13.3642        0.982566 
        5.63916          13.239        0.975586 
        5.65487         13.1595         0.96867 
         5.6706         13.0666        0.961813 
        5.68633         12.9676        0.955019 
        5.70203         12.8863        0.948306 
        5.71773         12.7739        0.941658 
        5.73344         12.6818         0.93507 
        5.74916         12.5919        0.928539 
        5.76486         12.4977        0.922079 
        5.78054         12.4273        0.915691 
        5.79626         12.3143        0.909345 
          5.812         12.2221        0.903053 
         5.8277         12.1338        0.896839 
        5.84339         12.0939        0.890683 
        5.85911         11.9737        0.884573 
        5.87484         11.8992        0.878522 
        5.89053         11.8289        0.872539 
        5.90623         11.7204        0.866609 
        5.92195          11.635        0.860724 
        5.93767         11.5466        0.854897 
        5.95336         11.4854        0.849134 
        5.96905         11.4182        0.843425 
        5.98476         11.3357        0.837761 
        6.00048         11.2311        0.832147 
        6.01617         11.1702        0.826592 
        6.03185         11.0694        0.821095 
        6.04756         11.0217        0.815634 
        6.06331         10.9512        0.810212 
        6.07903         10.8509         0.80485 
        6.09473         10.7935        0.799541 
        6.11044         10.7185        0.794276 
        6.12616         10.6598        0.789058 
        6.14186          10.558        0.783893 
        6.15755         10.4895        0.778774 
        6.17326         10.4319        0.773697 
        6.18898         10.3695        0.768663 
        6.20467         10.2842        0.763683 
        6.22036         10.2117        0.758747 
         6.2361         10.1653        0.753841 
         6.2518         10.0957        0.748987 
        6.26748         10.0063        0.744186 
        6.28319         9.95748        0.739414 
        6.29893         9.88623         0.73468 
        6.31463         9.80193        0.729995 
        6.33033         9.75428        0.725353 
        6.34604         9.68272        0.720747 
        6.36177          9.6091        0.716177 
        6.37747         9.55786        0.711655 
