# k  (h/Mpc)    Pcb(k)  (Mpc/h)^3    Pcb_linear(k) (Mpc/h)^3   ShotnoiseSubtracted = true
      0.0200456          4027.3         4085.81 
      0.0350414         3150.07         3203.69 
      0.0492313         2526.34         2538.31 
      0.0637834         2091.32         2064.05 
      0.0800726         1590.51         1559.19 
       0.096163         1207.58          1226.4 
       0.111083         1008.54         1038.15 
       0.126058         872.752         862.996 
       0.142273         724.665         702.252 
       0.158546         621.374         598.237 
        0.17375         520.462         520.486 
       0.188953         471.208          447.46 
       0.204907         431.935          387.34 
       0.220756         371.467         342.347 
        0.23588         328.852         304.079 
         0.2514         287.907         269.438 
       0.267535         267.492         240.293 
       0.283568         243.831         215.924 
       0.299022         224.813         194.985 
       0.314451         203.099         176.785 
       0.330372         188.172         160.741 
       0.346141         170.639         146.738 
       0.361624          160.82         134.488 
       0.377134         151.639         123.654 
       0.392932         136.617         113.892 
       0.408854         131.381          105.09 
       0.424564         125.765         97.2931 
       0.440253         116.795         90.3146 
       0.455999         110.308         84.0047 
       0.471626          102.11         78.3297 
        0.48727         99.0339         73.1723 
       0.502856         93.8919         68.4987 
       0.518488         90.4881         64.2213 
       0.534347         86.8064         60.2534 
       0.550082         80.0438         56.6484 
       0.565732         76.0714         53.3564 
       0.581496         73.6701         50.3051 
       0.597222          71.323         47.4991 
       0.612804         67.2747         44.9307 
       0.628434         65.5359         42.5461 
       0.644267         63.6585         40.3074 
       0.660051         61.2379         38.2367 
       0.675724         58.5023         36.3248 
       0.691403         56.7493         34.5435 
       0.707174         55.1441         32.8726 
       0.722871         53.1393         31.3197 
        0.73838         51.7234         29.8844 
       0.754018         49.3745         28.5285 
       0.769845         48.1977         27.2423 
        0.78569         46.8724         26.0343 
       0.801365         45.1981         24.9116 
       0.817031         44.1731         23.8561 
       0.832809          43.402         22.8551 
       0.848511         41.0365         21.9162 
       0.864097          40.235         21.0367 
       0.879701         39.5624         20.2047 
       0.895507         38.9088          19.408 
       0.911279         37.7004         18.6561 
        0.92691         36.7421         17.9504 
       0.942635         35.4947         17.2775 
       0.958396         35.0888         16.6378 
       0.974128         34.0371         16.0318 
       0.989692         33.6327         15.4621 
        1.00528         32.8806         14.9194 
        1.02113         31.7032         14.3944 
        1.03692         31.1464         13.8967 
        1.05264         30.5518         13.4249 
        1.06832         29.9115         12.9759 
        1.08405         29.2937         12.5463 
        1.09979         28.6637          12.136 
        1.11537         27.9824         11.7482 
        1.13105         27.7566         11.3751 
        1.14679         27.3824         11.0169 
        1.16256         26.4708         10.6734 
        1.17828         26.2904         10.3458 
        1.19395         25.5139          10.033 
         1.2097         25.3593         9.73172 
        1.22537         24.7872         9.44426 
          1.241         24.3716         9.16933 
        1.25666          23.727          8.9047 
        1.27241         23.4432          8.6493 
        1.28819          22.904         8.40353 
        1.30392         22.7221         8.16805 
        1.31957         22.4886         7.94267 
        1.33529         22.1417         7.72501 
        1.35108         21.6179         7.51466 
        1.36674         21.3083         7.31367 
         1.3824         20.9062         7.12025 
        1.39811         20.6189          6.9332 
        1.41389         20.4381         6.75217 
        1.42964         20.1328         6.57793 
        1.44531         19.9428         6.41071 
        1.46101           19.41         6.24897 
        1.47667         19.1726          6.0933 
        1.49229         18.9912         5.94337 
        1.50793         18.6925         5.79833 
        1.52367         18.4813         5.65721 
        1.53953         18.2558         5.51985 
        1.55526          17.943         5.38817 
        1.57092          17.697         5.26133 
        1.58662           17.48         5.13829 
        1.60235         17.2425         5.01895 
        1.61809           17.05         4.90336 
        1.63369         16.8207         4.79244 
        1.64941         16.5038         4.68416 
        1.66519         16.4204         4.57886 
        1.68085         16.1796         4.47754 
        1.69652         15.9452         4.37927 
        1.71228         15.7556         4.28339 
        1.72806         15.6568         4.19032 
        1.74368         15.4109         4.10095 
        1.75933         15.2064         4.01402 
        1.77505         15.0267         3.92921 
        1.79081         14.8277          3.8467 
         1.8065         14.7342         3.76691 
        1.82218         14.4505         3.68947 
        1.83797         14.3236         3.61368 
        1.85367         14.1461         3.54044 
        1.86928         14.0988         3.46967 
        1.88497         13.8236         3.40045 
        1.90073         13.7654         3.33287 
        1.91647         13.6177         3.26719 
        1.93218         13.4843         3.20343 
        1.94787         13.3017         3.14146 
        1.96363         13.2003         3.08088 
        1.97935         13.0123         3.02204 
        1.99499         12.8405         2.96506 
        2.01064         12.7014         2.90947 
         2.0264          12.572         2.85497 
        2.04216         12.4521         2.80188 
        2.05781         12.2602         2.75049 
        2.07353         12.1891          2.7002 
        2.08928          12.073         2.65106 
        2.10499         11.9782         2.60328 
        2.12065         11.7817         2.55682 
        2.13633          11.757         2.51145 
        2.15211         11.5962          2.4669 
        2.16785         11.5323         2.42355 
        2.18349         11.4348         2.38151 
        2.19916         11.2718         2.34039 
        2.21489         11.1796          2.3001 
        2.23063         11.0551         2.26074 
         2.2463         10.9209         2.22247 
        2.26194          10.827         2.18519 
        2.27765         10.7843         2.14857 
        2.29341         10.6483          2.1127 
        2.30914         10.4909         2.07772 
        2.32486         10.4396         2.04355 
        2.34061         10.3256         2.01009 
        2.35635         10.2787         1.97742 
        2.37203         10.1527         1.94558 
        2.38768         10.0269         1.91452 
        2.40339         9.93459         1.88402 
        2.41914         9.81707         1.85411 
        2.43483         9.79792         1.82496 
         2.4505         9.72626         1.79648 
        2.46622         9.61164         1.76852 
        2.48195         9.52581         1.74115 
        2.49759          9.4444          1.7145 
        2.51328         9.33727         1.68835 
        2.52906           9.271         1.66257 
        2.54479          9.1778         1.63743 
        2.56049         9.11287         1.61286 
        2.57618         9.06976         1.58881 
        2.59189         8.93927         1.56522 
        2.60758         8.90623         1.54215 
        2.62325         8.82142         1.51957 
        2.63898         8.68365         1.49736 
        2.65468         8.61775         1.47564 
        2.67044         8.55664         1.45426 
        2.68618         8.49061         1.43336 
        2.70184         8.42266         1.41295 
        2.71755         8.33072         1.39288 
        2.73329         8.27214         1.37318 
        2.74897         8.19836         1.35392 
        2.76462         8.16129         1.33507 
        2.78034         8.06424         1.31651 
        2.79607         8.00074         1.29827 
        2.81179         7.94551         1.28041 
        2.82749         7.88384          1.2629 
        2.84321         7.85999          1.2457 
        2.85893         7.76642         1.22882 
        2.87462         7.67561         1.21229 
        2.89033         7.61208         1.19604 
        2.90605         7.55851         1.18008 
        2.92176         7.48836         1.16442 
        2.93747          7.4371         1.14905 
        2.95318         7.41199         1.13396 
        2.96891         7.32682         1.11913 
        2.98456         7.26512         1.10463 
        3.00023         7.19545         1.09036 
        3.01596         7.16736         1.07631 
        3.03164         7.11003         1.06254 
        3.04738         7.07683         1.04897 
         3.0631         6.98252         1.03565 
        3.07883         6.93118         1.02255 
        3.09456         6.88412         1.00968 
        3.11026         6.83975        0.997059 
        3.12596         6.78513        0.984651 
        3.14163         6.71634        0.972483 
        3.15734         6.67256        0.960492 
        3.17308         6.62525        0.948675 
        3.18879         6.55403        0.937089 
        3.20447         6.52668        0.925713 
         3.2202         6.45624        0.914491 
         3.2359         6.42951        0.903475 
        3.25157         6.37091        0.892666 
        3.26729         6.35341        0.882002 
        3.28304         6.28059        0.871491 
        3.29877         6.22324        0.861165 
        3.31446         6.18369        0.851029 
        3.33014          6.1528        0.841065 
        3.34585         6.09498        0.831245 
        3.36158         6.06377        0.821568 
        3.37727         6.02352        0.812075 
        3.39294         5.97937         0.80274 
        3.40867         5.91747        0.793519 
        3.42439         5.88996        0.784448 
        3.44008         5.84251        0.775536 
        3.45578         5.79148        0.766756 
        3.47153         5.75456        0.758092 
        3.48724         5.72377        0.749578 
        3.50292         5.67311        0.741214 
        3.51859         5.63409        0.732982 
        3.53431         5.58003        0.724849 
        3.55007         5.55748         0.71682 
        3.56577         5.53309        0.708944 
        3.58146         5.49788         0.70119 
        3.59719         5.44344        0.693533 
        3.61292         5.41273        0.685994 
        3.62859         5.36061        0.678596 
        3.64429         5.32886        0.671292 
        3.66003         5.29124        0.664073 
        3.67578         5.25555        0.656963 
        3.69146          5.1931        0.649984 
        3.70712         5.18046        0.643119 
        3.72284         5.14624        0.636328 
        3.73853         5.11604        0.629647 
        3.75422         5.06954        0.623059 
        3.76993         5.04429        0.616559 
        3.78564         4.99909        0.610155 
        3.80137           4.968        0.603832 
        3.81707         4.93646        0.597611 
        3.83279         4.90659        0.591473 
        3.84853         4.85067        0.585411 
        3.86424         4.82565        0.579447 
        3.87992         4.80119        0.573573 
        3.89561         4.77349        0.567782 
        3.91134         4.72522        0.562058 
        3.92704         4.69407        0.556419 
        3.94273         4.67045        0.550864 
        3.95845         4.64739        0.545374 
        3.97418         4.60346        0.539958 
        3.98988         4.58666        0.534623 
        4.00554         4.55131        0.529374 
        4.02125          4.5206        0.524181 
        4.03698         4.47013         0.51905 
        4.05268         4.44104        0.513998 
        4.06839         4.42808        0.509011 
         4.0841         4.38178        0.504091 
        4.09983          4.3514        0.499229 
        4.11555         4.31666        0.494433 
        4.13124         4.28676        0.489713 
        4.14693         4.25624        0.485051 
        4.16266         4.24155        0.480439 
        4.17839         4.20853        0.475889 
        4.19408         4.16626        0.471409 
        4.20977          4.1426        0.466984 
        4.22551         4.11724        0.462606 
        4.24123         4.09047        0.458288 
        4.25691          4.0643        0.454037 
        4.27259         4.04857        0.449839 
        4.28831          4.0117        0.445685 
        4.30404         3.98401         0.44158 
        4.31974         3.95582        0.437535 
        4.33543         3.91592        0.433544 
        4.35116         3.89119        0.429592 
        4.36688         3.87039        0.425691 
        4.38255         3.83938        0.421854 
        4.39825         3.83439        0.418055 
        4.41398         3.81074        0.414295 
         4.4297         3.78025        0.410586 
        4.44541         3.75286        0.406923 
        4.46111         3.72765        0.403307 
        4.47683         3.69818        0.399732 
        4.49251         3.67514        0.396208 
        4.50819          3.6586        0.392728 
         4.5239         3.64171        0.389284 
        4.53962         3.61283        0.385877 
        4.55535         3.59225        0.382509 
        4.57106         3.56255        0.379187 
        4.58678         3.53883        0.375903 
         4.6025         3.52245        0.372657 
        4.61821          3.5043         0.36945 
        4.63391         3.47878        0.366285 
         4.6496         3.46109        0.363158 
        4.66532         3.42133        0.360063 
        4.68103         3.40407        0.357005 
        4.69673         3.38633        0.353986 
        4.71241         3.36202        0.351005 
        4.72811         3.34099        0.348053 
        4.74384         3.32786        0.345131 
        4.75955         3.30766        0.342247 
        4.77525         3.28418        0.339398 
        4.79096         3.25507        0.336578 
        4.80669         3.23999        0.333788 
         4.8224         3.23062        0.331033 
        4.83809         3.20736        0.328312 
        4.85379         3.17974         0.32562 
         4.8695         3.16356        0.322956 
        4.88521         3.14916        0.320323 
        4.90093         3.12444        0.317719 
        4.91663          3.1133        0.315146 
        4.93234         3.09219        0.312599 
        4.94807         3.07411        0.310079 
        4.96377         3.05529         0.30759 
        4.97943         3.03385        0.305135 
        4.99514          3.0066          0.3027 
        5.01086          2.9945        0.300289 
        5.02654         2.97923        0.297911 
        5.04227         2.96496        0.295552 
          5.058         2.95018        0.293217 
        5.07371         2.92792        0.290912 
        5.08942         2.91379        0.288631 
        5.10513         2.89472        0.286375 
        5.12084         2.88034        0.284141 
        5.13656         2.86232        0.281932 
        5.15225         2.84223         0.27975 
        5.16796         2.82026        0.277588 
        5.18369         2.81287        0.275446 
         5.1994         2.79465        0.273331 
        5.21509         2.77843         0.27124 
        5.23079         2.76029        0.269169 
        5.24649         2.74803        0.267121 
        5.26217         2.73666        0.265095 
        5.27788         2.70774        0.263088 
        5.29359         2.69665        0.261101 
        5.30933         2.68685        0.259131 
        5.32504          2.6626        0.257185 
        5.34073         2.65126        0.255262 
        5.35646         2.63723        0.253354 
        5.37218          2.6218        0.251465 
        5.38789         2.60839        0.249599 
        5.40357         2.59352        0.247753 
        5.41929         2.57565        0.245923 
        5.43502         2.56323         0.24411 
         5.4507         2.55012         0.24232 
        5.46639         2.53469        0.240548 
        5.48212         2.52187        0.238789 
        5.49786         2.50739        0.237046 
        5.51353          2.4904        0.235329 
        5.52921         2.48143        0.233627 
        5.54495         2.46736        0.231937 
        5.56066         2.44997        0.230265 
        5.57637         2.43774        0.228611 
        5.59207         2.42437        0.226973 
        5.60778         2.41515        0.225352 
        5.62346         2.39907        0.223748 
        5.63916         2.38282        0.222159 
        5.65487         2.37531        0.220584 
         5.6706         2.35861        0.219022 
        5.68633         2.34843        0.217475 
        5.70203         2.33668        0.215946 
        5.71773         2.32445        0.214433 
        5.73344         2.30483        0.212932 
        5.74916         2.29812        0.211445 
        5.76486         2.28698        0.209974 
        5.78054          2.2783        0.208519 
        5.79626          2.2667        0.207074 
          5.812         2.24435        0.205642 
         5.8277         2.23946        0.204227 
        5.84339         2.22532        0.202825 
        5.85911         2.21648        0.201433 
        5.87484         2.19988        0.200055 
        5.89053         2.19195        0.198693 
        5.90623         2.18108        0.197343 
        5.92195         2.16816        0.196003 
        5.93767         2.15703        0.194676 
        5.95336         2.14636        0.193363 
        5.96905         2.13549        0.192063 
        5.98476         2.11903        0.190773 
        6.00048         2.11339        0.189495 
        6.01617         2.10257         0.18823 
        6.03185         2.09104        0.186978 
        6.04756         2.08202        0.185735 
        6.06331         2.06722          0.1845 
        6.07903         2.05969        0.183279 
        6.09473         2.05297         0.18207 
        6.11044         2.03802        0.180871 
        6.12616         2.02661        0.179683 
        6.14186          2.0212        0.178507 
        6.15755         2.01112        0.177341 
        6.17326         1.99825        0.176185 
        6.18898         1.99181        0.175039 
        6.20467         1.98164        0.173904 
        6.22036         1.97199        0.172781 
         6.2361         1.95762        0.171663 
         6.2518         1.94874        0.170558 
        6.26748          1.9423        0.169465 
        6.28319         1.93167        0.168378 
        6.29893         1.92507          0.1673 
        6.31463          1.9145        0.166233 
        6.33033         1.90359        0.165176 
        6.34604          1.8968        0.164127 
        6.36177          1.8885        0.163087 
        6.37747         1.87583        0.162057 
