# k  (h/Mpc)    Pcb(k)  (Mpc/h)^3    Pcb_linear(k) (Mpc/h)^3   ShotnoiseSubtracted = true
      0.0200456          7574.8         7700.52 
      0.0350414         5885.12         6037.99 
      0.0492313         4734.94         4783.95 
      0.0637834         3949.15         3890.11 
      0.0800726         3003.01         2938.61 
       0.096163         2255.68          2311.4 
       0.111083         1880.71          1956.6 
       0.126058         1646.52         1626.49 
       0.142273         1376.01         1323.54 
       0.158546         1197.67          1127.5 
        0.17375          989.15         980.961 
       0.188953         916.963         843.328 
       0.204907         850.581         730.021 
       0.220756         734.138         645.223 
        0.23588         649.777         573.098 
         0.2514          566.31          507.81 
       0.267535         540.975          452.88 
       0.283568         493.986         406.952 
       0.299022         459.657         367.489 
       0.314451         425.907         333.187 
       0.330372         393.589         302.948 
       0.346141         356.933         276.557 
       0.361624         340.783         253.469 
       0.377134         319.732         233.051 
       0.392932         298.138         214.652 
       0.408854         285.906         198.063 
       0.424564         274.159         183.368 
       0.440253         260.715         170.216 
       0.455999         246.006         158.324 
       0.471626         227.046         147.628 
        0.48727         221.798         137.908 
       0.502856         213.308           129.1 
       0.518488         209.408         121.038 
       0.534347         198.555          113.56 
       0.550082         185.168         106.765 
       0.565732         180.596         100.561 
       0.581496         172.324         94.8101 
       0.597222         167.463         89.5215 
       0.612804         160.253         84.6809 
       0.628434         156.129         80.1866 
       0.644267         150.828         75.9675 
       0.660051         148.289         72.0647 
       0.675724         144.422         68.4614 
       0.691403         140.003         65.1041 
       0.707174         134.232          61.955 
       0.722871         132.617         59.0283 
        0.73838         129.904         56.3231 
       0.754018         124.411         53.7677 
       0.769845         121.991         51.3435 
        0.78569         119.336         49.0669 
       0.801365         115.952          46.951 
       0.817031         111.875         44.9616 
       0.832809          110.28         43.0751 
       0.848511         107.037         41.3055 
       0.864097         104.074         39.6478 
       0.879701         102.924         38.0798 
       0.895507         100.491         36.5783 
       0.911279         99.0915         35.1612 
        0.92691          96.625         33.8312 
       0.942635         94.2057          32.563 
       0.958396         93.7515         31.3573 
       0.974128         91.2476         30.2152 
       0.989692         88.8657         29.1415 
        1.00528         87.3424         28.1186 
        1.02113         85.8362         27.1291 
        1.03692         83.3186          26.191 
        1.05264          82.952         25.3019 
        1.06832         80.9103         24.4556 
        1.08405         79.8496          23.646 
        1.09979         79.0846         22.8727 
        1.11537         76.2838         22.1418 
        1.13105         76.5303         21.4387 
        1.14679         75.0976         20.7635 
        1.16256         73.8725         20.1162 
        1.17828         71.7851         19.4987 
        1.19395         71.4125         18.9093 
         1.2097         69.4467         18.3414 
        1.22537          69.531         17.7996 
          1.241         67.6733         17.2814 
        1.25666         66.4752         16.7827 
        1.27241         65.9073         16.3013 
        1.28819          64.599         15.8381 
        1.30392         63.4709         15.3943 
        1.31957         62.8927         14.9696 
        1.33529         61.9588         14.5593 
        1.35108         61.5184         14.1629 
        1.36674         60.5375         13.7841 
         1.3824         59.2551         13.4195 
        1.39811         58.8159          13.067 
        1.41389          57.814         12.7258 
        1.42964         57.0628         12.3974 
        1.44531          56.236         12.0823 
        1.46101         55.1034         11.7774 
        1.47667         55.0059          11.484 
        1.49229         54.2161         11.2015 
        1.50793         53.3492         10.9281 
        1.52367         52.6206         10.6621 
        1.53953         52.1383         10.4033 
        1.55526         51.4133         10.1551 
        1.57092         51.0205         9.91603 
        1.58662         50.3066         9.68413 
        1.60235         49.6936         9.45922 
        1.61809         48.9003         9.24136 
        1.63369         48.0816         9.03231 
        1.64941         47.5088         8.82825 
        1.66519         46.8575         8.62977 
        1.68085         46.4452         8.43883 
        1.69652         45.8569         8.25361 
        1.71228         45.5369         8.07292 
        1.72806          44.967          7.8975 
        1.74368         44.2612         7.72907 
        1.75933         43.8367         7.56523 
        1.77505         43.3621         7.40538 
        1.79081         42.7139         7.24987 
         1.8065         42.2899         7.09951 
        1.82218         41.7818         6.95355 
        1.83797         41.2444          6.8107 
        1.85367         40.6445         6.67266 
        1.86928         40.4056         6.53929 
        1.88497         39.8752         6.40883 
        1.90073         39.5759         6.28147 
        1.91647           39.07         6.15768 
        1.93218         38.5443          6.0375 
        1.94787         38.1613         5.92071 
        1.96363         37.7178         5.80655 
        1.97935         37.3339         5.69564 
        1.99499         36.8248         5.58825 
        2.01064         36.5405         5.48349 
         2.0264         36.0012         5.38076 
        2.04216         35.5059         5.28071 
        2.05781         35.1913         5.18384 
        2.07353         34.8172         5.08907 
        2.08928          34.619         4.99645 
        2.10499         34.2304          4.9064 
        2.12065         33.7387         4.81883 
        2.13633         33.5612         4.73334 
        2.15211         32.9395         4.64936 
        2.16785         32.4706         4.56766 
        2.18349         32.3947         4.48844 
        2.19916         32.0776         4.41094 
        2.21489         31.5075         4.33501 
        2.23063         31.3671         4.26082 
         2.2463         31.0285          4.1887 
        2.26194         30.6439         4.11843 
        2.27765         30.3105         4.04941 
        2.29341         30.0018          3.9818 
        2.30914         29.7805         3.91587 
        2.32486         29.3353         3.85148 
        2.34061         29.1697         3.78843 
        2.35635         28.8036         3.72684 
        2.37203          28.536         3.66685 
        2.38768         28.2337         3.60829 
        2.40339          28.088         3.55081 
        2.41914         27.7485         3.49444 
        2.43483         27.3276          3.4395 
         2.4505         27.1017         3.38583 
        2.46622         26.8497         3.33313 
        2.48195         26.5792         3.28154 
        2.49759         26.2943         3.23133 
        2.51328         26.0505         3.18203 
        2.52906         25.8665         3.13345 
        2.54479          25.498         3.08607 
        2.56049         25.2258         3.03976 
        2.57618          24.947         2.99444 
        2.59189         24.8056         2.94998 
        2.60758         24.6079         2.90649 
        2.62325         24.2046         2.86393 
        2.63898         24.1535         2.82207 
        2.65468         23.8061         2.78114 
        2.67044         23.5668         2.74085 
        2.68618         23.3102         2.70145 
        2.70184         23.1478         2.66298 
        2.71755         22.9492         2.62517 
        2.73329         22.6918         2.58803 
        2.74897         22.3627         2.55173 
        2.76462         22.3095         2.51621 
        2.78034         22.0555         2.48122 
        2.79607         21.8508         2.44686 
        2.81179         21.6663         2.41319 
        2.82749         21.4216         2.38019 
        2.84321         21.2442         2.34777 
        2.85893         20.9976         2.31596 
        2.87462         20.7607          2.2848 
        2.89033         20.6715         2.25418 
        2.90605         20.5055          2.2241 
        2.92176          20.214         2.19458 
        2.93747         20.1164         2.16562 
        2.95318         19.8272         2.13717 
        2.96891         19.6796         2.10922 
        2.98456         19.4388         2.08189 
        3.00023         19.3605         2.05501 
        3.01596          19.134         2.02852 
        3.03164         18.9635         2.00257 
        3.04738         18.7737           1.977 
         3.0631         18.5959         1.95188 
        3.07883         18.4282          1.9272 
        3.09456         18.2943         1.90295 
        3.11026         18.1287         1.87916 
        3.12596         17.9203         1.85577 
        3.14163         17.8191         1.83284 
        3.15734         17.5733         1.81024 
        3.17308          17.436         1.78797 
        3.18879         17.2943         1.76613 
        3.20447          17.142         1.74469 
         3.2202         16.9451         1.72354 
         3.2359         16.8171         1.70278 
        3.25157         16.7002         1.68241 
        3.26729         16.5691         1.66231 
        3.28304         16.4042          1.6425 
        3.29877         16.1688         1.62304 
        3.31446         16.0419         1.60394 
        3.33014          15.917         1.58516 
        3.34585         15.7137         1.56665 
        3.36158         15.6138         1.54841 
        3.37727         15.4563         1.53052 
        3.39294         15.2973         1.51293 
        3.40867          15.169         1.49555 
        3.42439         15.0357         1.47845 
        3.44008         14.9166         1.46165 
        3.45578         14.8053         1.44511 
        3.47153         14.6782         1.42878 
        3.48724         14.5618         1.41273 
        3.50292         14.3888         1.39697 
        3.51859         14.2962         1.38145 
        3.53431         14.1878         1.36612 
        3.55007         14.0404         1.35099 
        3.56577         13.9422         1.33615 
        3.58146         13.8193         1.32153 
        3.59719         13.6445          1.3071 
        3.61292          13.576         1.29289 
        3.62859         13.4053         1.27895 
        3.64429         13.2876         1.26518 
        3.66003         13.2061         1.25158 
        3.67578         13.1227         1.23818 
        3.69146         12.9825         1.22503 
        3.70712         12.8484         1.21209 
        3.72284         12.7707         1.19929 
        3.73853         12.6054          1.1867 
        3.75422         12.5407         1.17428 
        3.76993         12.4398         1.16203 
        3.78564         12.2992         1.14996 
        3.80137          12.189         1.13804 
        3.81707         12.0687         1.12632 
        3.83279          11.982         1.11475 
        3.84853         11.8725         1.10333 
        3.86424         11.7362         1.09208 
        3.87992            11.7         1.08101 
        3.89561         11.6019          1.0701 
        3.91134         11.5327         1.05931 
        3.92704         11.3636         1.04868 
        3.94273         11.2884         1.03821 
        3.95845         11.2193         1.02787 
        3.97418         11.1179         1.01766 
        3.98988         11.0224          1.0076 
        4.00554         10.9186        0.997713 
        4.02125         10.7786        0.987925 
        4.03698         10.7505        0.978254 
        4.05268         10.6446        0.968733 
        4.06839         10.5466        0.959333 
         4.0841         10.4841         0.95006 
        4.09983          10.361        0.940897 
        4.11555         10.2704        0.931858 
        4.13124         10.2007        0.922963 
        4.14693         10.1116        0.914176 
        4.16266         10.0415        0.905483 
        4.17839         9.95089        0.896909 
        4.19408         9.87921        0.888465 
        4.20977         9.78814        0.880126 
        4.22551         9.74407        0.871874 
        4.24123         9.65086        0.863736 
        4.25691         9.54794        0.855725 
        4.27259         9.47742        0.847812 
        4.28831         9.41134        0.839983 
        4.30404         9.31349        0.832246 
        4.31974         9.26189        0.824623 
        4.33543          9.1599          0.8171 
        4.35116         9.09278        0.809653 
        4.36688         9.02525        0.802301 
        4.38255         8.96218        0.795068 
        4.39825         8.87781        0.787908 
        4.41398         8.81399        0.780823 
         4.4297         8.74259        0.773832 
        4.44541         8.66787        0.766927 
        4.46111          8.5975        0.760112 
        4.47683         8.54493        0.753376 
        4.49251          8.4605        0.746734 
        4.50819         8.40729        0.740174 
         4.5239         8.34564        0.733684 
        4.53962         8.28825        0.727263 
        4.55535         8.20126        0.720916 
        4.57106         8.14313        0.714654 
        4.58678         8.05462        0.708464 
         4.6025          7.9891        0.702347 
        4.61821         7.94518        0.696303 
        4.63391         7.89243        0.690337 
         4.6496         7.81483        0.684444 
        4.66532         7.75133        0.678611 
        4.68103         7.69579        0.672848 
        4.69673          7.6378        0.667158 
        4.71241         7.60528        0.661539 
        4.72811         7.51628        0.655975 
        4.74384         7.47545        0.650469 
        4.75955         7.42024        0.645034 
        4.77525         7.35568        0.639664 
        4.79096         7.29857        0.634348 
        4.80669         7.26124        0.629091 
         4.8224         7.20791        0.623899 
        4.83809         7.12004        0.618771 
        4.85379         7.06573        0.613697 
         4.8695         7.03191        0.608676 
        4.88521         6.96618        0.603714 
        4.90093         6.93301        0.598806 
        4.91663         6.86062        0.593957 
        4.93234         6.80139        0.589156 
        4.94807         6.75562        0.584406 
        4.96377         6.70921        0.579716 
        4.97943          6.6639        0.575088 
        4.99514         6.62115        0.570498 
        5.01086         6.56311        0.565956 
        5.02654         6.49956        0.561474 
        5.04227         6.46383        0.557027 
          5.058         6.42765        0.552626 
        5.07371         6.37799        0.548282 
        5.08942         6.31785        0.543984 
        5.10513         6.26394        0.539731 
        5.12084         6.23014        0.535522 
        5.13656         6.18368        0.531358 
        5.15225         6.13969        0.527246 
        5.16796         6.09551         0.52317 
        5.18369         6.05417        0.519134 
         5.1994         6.00444        0.515148 
        5.21509         5.96207        0.511207 
        5.23079         5.91966        0.507303 
        5.24649         5.88081        0.503443 
        5.26217         5.82923        0.499625 
        5.27788         5.80123        0.495842 
        5.29359         5.75228        0.492097 
        5.30933          5.7098        0.488385 
        5.32504         5.66477        0.484718 
        5.34073         5.63058        0.481092 
        5.35646         5.58618        0.477496 
        5.37218         5.54971        0.473937 
        5.38789         5.52843        0.470419 
        5.40357         5.47889        0.466941 
        5.41929         5.44243        0.463491 
        5.43502         5.40602        0.460075 
         5.4507         5.36605        0.456701 
        5.46639         5.31429        0.453361 
        5.48212         5.27165        0.450046 
        5.49786         5.26742        0.446761 
        5.51353         5.20468        0.443525 
        5.52921         5.17924        0.440317 
        5.54495         5.14969        0.437132 
        5.56066         5.10732        0.433981 
        5.57637         5.06992        0.430863 
        5.59207         5.03349        0.427777 
        5.60778         5.00237        0.424721 
        5.62346         4.96648        0.421698 
        5.63916         4.93532        0.418703 
        5.65487         4.89713        0.415734 
         5.6706          4.8713        0.412791 
        5.68633         4.83852        0.409876 
        5.70203          4.7918        0.406995 
        5.71773         4.77158        0.404141 
        5.73344         4.73879        0.401314 
        5.74916          4.7086        0.398511 
        5.76486         4.67808        0.395739 
        5.78054         4.64443        0.392997 
        5.79626          4.6119        0.390273 
          5.812         4.57337        0.387573 
         5.8277         4.54879        0.384906 
        5.84339         4.52347        0.382264 
        5.85911         4.49586        0.379642 
        5.87484         4.45944        0.377045 
        5.89053          4.4375        0.374477 
        5.90623         4.41165        0.371932 
        5.92195         4.36793        0.369406 
        5.93767         4.34734        0.366905 
        5.95336         4.32039        0.364432 
        5.96905          4.2927        0.361982 
        5.98476         4.26546        0.359551 
        6.00048         4.23104        0.357142 
        6.01617         4.21166        0.354758 
        6.03185         4.17666        0.352398 
        6.04756         4.15868        0.350054 
        6.06331          4.1332        0.347727 
        6.07903         4.10118        0.345426 
        6.09473         4.07533        0.343148 
        6.11044         4.04319        0.340888 
        6.12616         4.03573        0.338649 
        6.14186          4.0005        0.336432 
        6.15755          3.9807        0.334235 
        6.17326         3.95461        0.332056 
        6.18898         3.92347        0.329895 
        6.20467         3.90238        0.327758 
        6.22036         3.88215         0.32564 
         6.2361          3.8564        0.323534 
         6.2518         3.83524        0.321451 
        6.26748          3.8049         0.31939 
        6.28319         3.78053        0.317342 
        6.29893         3.75664         0.31531 
        6.31463         3.73821          0.3133 
        6.33033         3.71895        0.311307 
        6.34604         3.68788        0.309331 
        6.36177         3.66957        0.307369 
        6.37747         3.65027        0.305429 
