# k  (h/Mpc)    Pcb(k)  (Mpc/h)^3    Pcb_linear(k) (Mpc/h)^3   ShotnoiseSubtracted = true
      0.0200456         27588.5         28324.5 
      0.0350414         20914.8         22209.3 
      0.0492313         16899.9         17596.6 
      0.0637834         14438.2         14308.8 
      0.0800726         10962.8           10809 
       0.096163          8013.3         8501.94 
       0.111083         6756.62         7196.87 
       0.126058         5996.21         5982.65 
       0.142273         5094.16         4868.31 
       0.158546         4745.22         4147.23 
        0.17375         3871.22         3608.23 
       0.188953         3756.18         3101.98 
       0.204907         3521.43         2685.21 
       0.220756          3108.6          2373.3 
        0.23588          2820.3            2108 
         0.2514         2488.49         1867.86 
       0.267535         2503.33         1665.81 
       0.283568         2273.58         1496.87 
       0.299022         2178.16         1351.72 
       0.314451         2073.71         1225.55 
       0.330372         1892.68         1114.32 
       0.346141          1888.9         1017.25 
       0.361624         1816.12         932.326 
       0.377134         1706.89         857.223 
       0.392932         1637.79         789.546 
       0.408854         1607.44         728.525 
       0.424564         1484.72         674.477 
       0.440253         1455.49         626.098 
       0.455999         1447.25         582.356 
       0.471626         1385.81         543.014 
        0.48727         1341.89         507.261 
       0.502856         1281.24         474.861 
       0.518488         1298.59         445.209 
       0.534347         1211.55         417.702 
       0.550082         1205.31          392.71 
       0.565732          1183.5         369.889 
       0.581496         1136.12         348.736 
       0.597222         1103.99         329.283 
       0.612804            1091         311.478 
       0.628434         1061.81         294.947 
       0.644267          1036.9         279.428 
       0.660051         1018.42         265.073 
       0.675724         1009.73         251.819 
       0.691403         983.496          239.47 
       0.707174         949.165         227.887 
       0.722871         924.218         217.121 
        0.73838         913.577         207.171 
       0.754018         897.117         197.772 
       0.769845         882.822         188.855 
        0.78569         871.458         180.481 
       0.801365         846.518         172.698 
       0.817031         834.004          165.38 
       0.832809         819.541         158.441 
       0.848511         803.873         151.932 
       0.864097         780.066         145.835 
       0.879701          766.52         140.067 
       0.895507         762.503         134.545 
       0.911279           753.8         129.332 
        0.92691         734.357          124.44 
       0.942635         714.314         119.775 
       0.958396         707.064          115.34 
       0.974128         696.341         111.139 
       0.989692         685.823          107.19 
        1.00528         663.949         103.427 
        1.02113         664.786         99.7877 
        1.03692         648.674         96.3374 
        1.05264         638.048         93.0669 
        1.06832         625.967         89.9541 
        1.08405         613.918         86.9761 
        1.09979         604.392         84.1318 
        1.11537         595.907         81.4434 
        1.13105         587.972          78.857 
        1.14679         575.733         76.3734 
        1.16256         566.267         73.9924 
        1.17828         560.284         71.7212 
        1.19395         549.893         69.5533 
         1.2097         535.621         67.4643 
        1.22537         529.035         65.4716 
          1.241         519.372         63.5656 
        1.25666         517.012         61.7311 
        1.27241         505.269         59.9606 
        1.28819         491.448         58.2568 
        1.30392         489.122         56.6243 
        1.31957         476.769         55.0619 
        1.33529         471.841          53.553 
        1.35108         462.811         52.0948 
        1.36674         454.932         50.7015 
         1.3824         450.203         49.3605 
        1.39811         439.725         48.0638 
        1.41389         435.949         46.8089 
        1.42964         431.367          45.601 
        1.44531         425.804         44.4417 
        1.46101         417.367         43.3205 
        1.47667         407.875         42.2413 
        1.49229         405.146         41.2019 
        1.50793         393.227         40.1964 
        1.52367         392.244         39.2181 
        1.53953          381.29         38.2659 
        1.55526         381.272          37.353 
        1.57092          377.23         36.4737 
        1.58662         369.317         35.6208 
        1.60235         364.121         34.7935 
        1.61809         360.074         33.9921 
        1.63369         352.036         33.2232 
        1.64941         346.131         32.4726 
        1.66519         342.575         31.7425 
        1.68085         339.167         31.0402 
        1.69652         335.371         30.3589 
        1.71228         327.013         29.6943 
        1.72806         324.224         29.0491 
        1.74368         317.507         28.4295 
        1.75933         313.955         27.8269 
        1.77505         308.451         27.2389 
        1.79081         305.581         26.6669 
         1.8065         300.088         26.1138 
        1.82218         297.531         25.5769 
        1.83797         292.905         25.0515 
        1.85367         287.928         24.5438 
        1.86928         283.031         24.0532 
        1.88497         280.624         23.5734 
        1.90073         276.068         23.1049 
        1.91647         272.139         22.6495 
        1.93218         268.304         22.2075 
        1.94787         264.901         21.7779 
        1.96363         261.725          21.358 
        1.97935         256.906           20.95 
        1.99499         253.595          20.555 
        2.01064         250.388         20.1697 
         2.0264         247.098         19.7918 
        2.04216         245.189         19.4238 
        2.05781         241.686         19.0675 
        2.07353          237.42         18.7189 
        2.08928         234.172         18.3782 
        2.10499         230.828          18.047 
        2.12065         227.738         17.7249 
        2.13633          226.11         17.4104 
        2.15211         222.931         17.1016 
        2.16785         220.768          16.801 
        2.18349          217.65         16.5097 
        2.19916         213.535         16.2246 
        2.21489         212.927         15.9453 
        2.23063         209.167         15.6724 
         2.2463         205.829         15.4071 
        2.26194         203.366         15.1486 
        2.27765         199.951         14.8948 
        2.29341         197.935         14.6461 
        2.30914          195.15         14.4036 
        2.32486         194.241         14.1667 
        2.34061         189.843         13.9348 
        2.35635         189.626         13.7083 
        2.37203         185.719         13.4876 
        2.38768         182.845         13.2722 
        2.40339         182.033         13.0608 
        2.41914         179.528         12.8535 
        2.43483         177.194         12.6514 
         2.4505         174.812          12.454 
        2.46622         173.436         12.2601 
        2.48195         170.976         12.0704 
        2.49759         169.029         11.8857 
        2.51328         166.524         11.7043 
        2.52906         164.868         11.5256 
        2.54479         163.379         11.3514 
        2.56049          161.36          11.181 
        2.57618         159.531         11.0143 
        2.59189         157.452         10.8508 
        2.60758         155.085         10.6908 
        2.62325         153.841         10.5343 
        2.63898          151.43         10.3803 
        2.65468         150.514         10.2298 
        2.67044          149.12         10.0816 
        2.68618         147.077         9.93664 
        2.70184         145.027         9.79514 
        2.71755         143.556         9.65605 
        2.73329         141.225         9.51945 
        2.74897         140.478         9.38594 
        2.76462         138.702         9.25528 
        2.78034         137.201         9.12657 
        2.79607         135.696         9.00018 
        2.81179         134.433         8.87633 
        2.82749         132.938         8.75495 
        2.84321         130.717          8.6357 
        2.85893         129.258         8.51871 
        2.87462         128.062         8.40409 
        2.89033         126.417         8.29147 
        2.90605         125.968         8.18082 
        2.92176         123.692         8.07225 
        2.93747         122.769         7.96571 
        2.95318           121.4         7.86106 
        2.96891          120.16         7.75825 
        2.98456         118.675         7.65773 
        3.00023         117.751         7.55885 
        3.01596         116.366         7.46141 
        3.03164         115.215         7.36596 
        3.04738         113.655         7.27191 
         3.0631         112.545         7.17953 
        3.07883         111.289         7.08875 
        3.09456         110.045         6.99955 
        3.11026         109.467         6.91203 
        3.12596         107.711         6.82601 
        3.14163         106.774         6.74166 
        3.15734         106.125         6.65853 
        3.17308         104.581         6.57661 
        3.18879         103.373         6.49629 
        3.20447         102.583         6.41743 
         3.2202         101.479         6.33963 
         3.2359         100.578         6.26326 
        3.25157         99.3984         6.18834 
        3.26729         98.2488         6.11441 
        3.28304         97.3857         6.04154 
        3.29877         96.4864         5.96996 
        3.31446         95.2134         5.89969 
        3.33014         94.9041         5.83062 
        3.34585          93.386         5.76254 
        3.36158         92.5481         5.69545 
        3.37727         91.4135         5.62964 
        3.39294         90.5261         5.56493 
        3.40867         89.7455         5.50101 
        3.42439         88.7092         5.43812 
        3.44008         87.8514         5.37634 
        3.45578         86.9531         5.31547 
        3.47153         86.3613         5.25541 
        3.48724         85.1825         5.19639 
        3.50292         84.6386         5.13841 
        3.51859         83.7176         5.08134 
        3.53431         82.8252         5.02496 
        3.55007         82.1699          4.9693 
        3.56577         81.4089          4.9147 
        3.58146         80.9517         4.86094 
        3.59719         79.7575         4.80786 
        3.61292         78.8921          4.7556 
        3.62859         78.2039         4.70431 
        3.64429         77.4266         4.65367 
        3.66003         76.6824         4.60363 
        3.67578          75.916         4.55434 
        3.69146         75.4481         4.50596 
        3.70712         74.7216         4.45837 
        3.72284         74.0089         4.41129 
        3.73853         73.2493         4.36497 
        3.75422         72.6123          4.3193 
        3.76993         72.0286         4.27425 
        3.78564         71.0565         4.22985 
        3.80137         70.6669         4.18602 
        3.81707         70.0904         4.14289 
        3.83279         69.2564         4.10034 
        3.84853         68.7555         4.05832 
        3.86424         68.1129         4.01697 
        3.87992         67.6328         3.97625 
        3.89561         66.8673          3.9361 
        3.91134         66.1734         3.89642 
        3.92704         65.7233         3.85733 
        3.94273         65.1906         3.81882 
        3.95845         64.5653         3.78076 
        3.97418         63.7107         3.74322 
        3.98988         63.2826         3.70623 
        4.00554         62.7317         3.66985 
        4.02125         62.2413         3.63384 
        4.03698         61.7385         3.59827 
        4.05268         61.1237         3.56325 
        4.06839         60.6688         3.52868 
         4.0841         59.9478         3.49457 
        4.09983         59.6089         3.46086 
        4.11555         58.9559         3.42762 
        4.13124         58.4359          3.3949 
        4.14693          58.011         3.36258 
        4.16266         57.4525          3.3306 
        4.17839         57.0371         3.29906 
        4.19408         56.3936           3.268 
        4.20977         55.9589         3.23733 
        4.22551         55.3983         3.20698 
        4.24123         54.9506         3.17705 
        4.25691         54.3751         3.14758 
        4.27259         53.9718         3.11847 
        4.28831         53.7268         3.08968 
        4.30404         53.0031         3.06122 
        4.31974          52.818         3.03318 
        4.33543          52.191         3.00551 
        4.35116         51.7163         2.97811 
        4.36688         51.3624         2.95107 
        4.38255         50.8824         2.92447 
        4.39825         50.4407         2.89813 
        4.41398         50.0253         2.87207 
         4.4297         49.6711         2.84635 
        4.44541         49.1223         2.82096 
        4.46111         48.7355         2.79589 
        4.47683         48.2825         2.77111 
        4.49251         48.0774         2.74668 
        4.50819         47.4817         2.72255 
         4.5239         47.1676         2.69868 
        4.53962         46.7295         2.67506 
        4.55535         46.4399         2.65171 
        4.57106         46.1354         2.62868 
        4.58678         45.7144         2.60591 
         4.6025         45.2927         2.58341 
        4.61821          44.892         2.56118 
        4.63391         44.5704         2.53924 
         4.6496         44.0365         2.51756 
        4.66532         43.7992         2.49611 
        4.68103         43.5248         2.47491 
        4.69673         43.1256         2.45398 
        4.71241          42.829         2.43331 
        4.72811         42.4686         2.41285 
        4.74384         42.0741         2.39259 
        4.75955          41.786          2.3726 
        4.77525         41.4458         2.35285 
        4.79096         41.1469          2.3333 
        4.80669         40.7701         2.31396 
         4.8224         40.4977         2.29486 
        4.83809         40.1209           2.276 
        4.85379         39.7575         2.25734 
         4.8695         39.4978         2.23887 
        4.88521         39.1057         2.22062 
        4.90093         38.7675         2.20256 
        4.91663          38.577         2.18473 
        4.93234         38.2357         2.16707 
        4.94807         37.9081         2.14959 
        4.96377         37.5621         2.13235 
        4.97943         37.3386         2.11532 
        4.99514         36.9757         2.09844 
        5.01086         36.7173         2.08173 
        5.02654         36.4558         2.06525 
        5.04227         36.2675         2.04889 
          5.058         35.8639          2.0327 
        5.07371          35.628         2.01672 
        5.08942         35.3265         2.00091 
        5.10513         35.0808         1.98527 
        5.12084          34.775         1.96979 
        5.13656           34.64         1.95447 
        5.15225         34.3079         1.93935 
        5.16796         33.9818         1.92436 
        5.18369         33.7357         1.90951 
         5.1994         33.5422         1.89485 
        5.21509         33.2274         1.88035 
        5.23079         32.9591         1.86599 
        5.24649         32.6849         1.85179 
        5.26217         32.4543         1.83775 
        5.27788          32.259         1.82383 
        5.29359         31.9845         1.81006 
        5.30933         31.8014         1.79641 
        5.32504         31.5745         1.78292 
        5.34073         31.2903         1.76958 
        5.35646         31.0789         1.75636 
        5.37218         30.7601         1.74326 
        5.38789         30.5738         1.73032 
        5.40357         30.2925         1.71753 
        5.41929         30.1033         1.70484 
        5.43502         29.9069         1.69227 
         5.4507          29.711         1.67986 
        5.46639         29.4836         1.66758 
        5.48212         29.2269         1.65539 
        5.49786         29.0447          1.6433 
        5.51353         28.8236          1.6314 
        5.52921         28.5314          1.6196 
        5.54495         28.4434         1.60788 
        5.56066         28.2056          1.5963 
        5.57637         27.9635         1.58482 
        5.59207         27.7968         1.57348 
        5.60778         27.5603         1.56223 
        5.62346         27.3376         1.55112 
        5.63916         27.2085          1.5401 
        5.65487         26.9677         1.52918 
         5.6706         26.7047         1.51835 
        5.68633         26.5223         1.50763 
        5.70203         26.3477         1.49703 
        5.71773         26.2285         1.48654 
        5.73344         26.0125         1.47614 
        5.74916         25.8294         1.46583 
        5.76486         25.6387         1.45563 
        5.78054         25.4297         1.44554 
        5.79626         25.2474         1.43553 
          5.812         25.0438         1.42559 
         5.8277         24.8115         1.41578 
        5.84339         24.7313         1.40607 
        5.85911         24.5425         1.39642 
        5.87484         24.3914         1.38687 
        5.89053         24.1672         1.37742 
        5.90623         24.0294         1.36806 
        5.92195         23.8628         1.35877 
        5.93767         23.6851         1.34957 
        5.95336         23.5252         1.34047 
        5.96905         23.3635         1.33146 
        5.98476         23.2059         1.32252 
        6.00048          23.012         1.31366 
        6.01617         22.8642         1.30489 
        6.03185         22.7143         1.29621 
        6.04756         22.5695         1.28759 
        6.06331         22.4059         1.27903 
        6.07903         22.2231         1.27057 
        6.09473         22.1074         1.26219 
        6.11044         21.9073         1.25387 
        6.12616         21.7951         1.24564 
        6.14186         21.6356         1.23748 
        6.15755         21.4748          1.2294 
        6.17326         21.3287         1.22139 
        6.18898         21.1969         1.21344 
        6.20467         21.0516         1.20558 
        6.22036         20.8942         1.19779 
         6.2361         20.7398         1.19004 
         6.2518          20.596         1.18238 
        6.26748         20.4783          1.1748 
        6.28319         20.2951         1.16727 
        6.29893          20.204         1.15979 
        6.31463         20.0551          1.1524 
        6.33033         19.9245         1.14507 
        6.34604         19.8025          1.1378 
        6.36177         19.6407         1.13058 
        6.37747         19.5384         1.12345 
