# k  (h/Mpc)    Pcb(k)  (Mpc/h)^3    Pcb_linear(k) (Mpc/h)^3   ShotnoiseSubtracted = true
      0.0200456         297.256         300.509 
      0.0350414          237.24          235.63 
      0.0492313         186.846         186.691 
      0.0637834          150.89          151.81 
      0.0800726         114.575         114.678 
       0.096163         90.9157         90.2013 
       0.111083         76.9159         76.3553 
       0.126058         63.3368          63.473 
       0.142273         51.6327         51.6503 
       0.158546          44.013              44 
        0.17375         38.5082         38.2815 
       0.188953         33.0505         32.9104 
       0.204907         28.1887         28.4887 
       0.220756         25.1875         25.1795 
        0.23588         22.3708         22.3648 
         0.2514         19.8824          19.817 
       0.267535            17.8         17.6734 
       0.283568         15.9454         15.8811 
       0.299022         14.4246         14.3411 
       0.314451         13.2506         13.0025 
       0.330372         11.9516         11.8224 
       0.346141         10.9121         10.7925 
       0.361624         9.97546         9.89152 
       0.377134         9.14914         9.09471 
       0.392932         8.61681          8.3767 
       0.408854         7.81131         7.72929 
       0.424564         7.35155         7.15586 
       0.440253         6.76374         6.64259 
       0.455999          6.2304         6.17851 
       0.471626         5.81566         5.76111 
        0.48727         5.52583         5.38179 
       0.502856         5.17847         5.03804 
       0.518488         4.78289         4.72345 
       0.534347         4.46928         4.43161 
       0.550082         4.26569         4.16646 
       0.565732         4.06069         3.92433 
       0.581496          3.8007         3.69992 
       0.597222         3.58372         3.49353 
       0.612804         3.38291         3.30463 
       0.628434         3.21557         3.12924 
       0.644267         3.06367         2.96459 
       0.660051         2.90638         2.81229 
       0.675724         2.74077         2.67167 
       0.691403         2.61494         2.54065 
       0.707174         2.48902         2.41776 
       0.722871          2.4185         2.30355 
        0.73838         2.26049         2.19798 
       0.754018         2.15959         2.09826 
       0.769845         2.04488         2.00365 
        0.78569         1.98214         1.91481 
       0.801365         1.89954         1.83224 
       0.817031          1.8263          1.7546 
       0.832809         1.73407         1.68098 
       0.848511         1.67249         1.61193 
       0.864097         1.61327         1.54724 
       0.879701         1.55986         1.48604 
       0.895507         1.48014         1.42745 
       0.911279         1.43524         1.37215 
        0.92691         1.39256         1.32025 
       0.942635         1.32139         1.27075 
       0.958396         1.27822          1.2237 
       0.974128         1.23539         1.17913 
       0.989692         1.19043         1.13723 
        1.00528         1.14426         1.09731 
        1.02113         1.11729          1.0587 
        1.03692         1.08181         1.02209 
        1.05264         1.03479        0.987394 
        1.06832         1.00491        0.954369 
        1.08405        0.966606        0.922773 
        1.09979        0.941789        0.892596 
        1.11537        0.906468        0.864074 
        1.13105        0.872739        0.836634 
        1.14679        0.852823        0.810284 
        1.16256        0.827714        0.785023 
        1.17828        0.806117        0.760926 
        1.19395        0.780526        0.737926 
         1.2097        0.755191        0.715763 
        1.22537        0.730149        0.694621 
          1.241        0.711429          0.6744 
        1.25666        0.696461        0.654936 
        1.27241        0.673154        0.636152 
        1.28819         0.65193        0.618075 
        1.30392        0.636737        0.600756 
        1.31957        0.618702         0.58418 
        1.33529        0.601131         0.56817 
        1.35108        0.584346          0.5527 
        1.36674         0.56825        0.537917 
         1.3824        0.557083        0.523691 
        1.39811        0.539512        0.509933 
        1.41389        0.527937        0.496619 
        1.42964        0.513693        0.483804 
        1.44531        0.500018        0.471505 
        1.46101        0.485395        0.459608 
        1.47667        0.475771        0.448159 
        1.49229        0.461824        0.437132 
        1.50793        0.452782        0.426464 
        1.52367         0.43957        0.416085 
        1.53953        0.429131        0.405982 
        1.55526        0.420006        0.396297 
        1.57092        0.413766        0.386968 
        1.58662        0.403386        0.377919 
        1.60235        0.393269        0.369142 
        1.61809        0.382691        0.360639 
        1.63369        0.373387        0.352481 
        1.64941        0.366475        0.344518 
        1.66519        0.359386        0.336773 
        1.68085        0.349111        0.329321 
        1.69652        0.342149        0.322093 
        1.71228        0.334277        0.315042 
        1.72806        0.328018        0.308196 
        1.74368        0.320738        0.301623 
        1.75933        0.314672        0.295229 
        1.77505        0.308773        0.288991 
        1.79081        0.299816        0.282923 
         1.8065        0.295792        0.277055 
        1.82218        0.287672        0.271359 
        1.83797        0.280751        0.265784 
        1.85367        0.276822        0.260397 
        1.86928        0.270365        0.255192 
        1.88497        0.264463        0.250102 
        1.90073        0.259724        0.245131 
        1.91647        0.255526          0.2403 
        1.93218        0.251275         0.23561 
        1.94787        0.244689        0.231053 
        1.96363        0.240483        0.226598 
        1.97935        0.235793        0.222269 
        1.99499        0.230962        0.218079 
        2.01064        0.227042         0.21399 
         2.0264         0.22272        0.209981 
        2.04216        0.217779        0.206077 
        2.05781        0.214223        0.202297 
        2.07353        0.210731        0.198598 
        2.08928        0.207254        0.194984 
        2.10499        0.202404         0.19147 
        2.12065        0.199185        0.188053 
        2.13633        0.195789        0.184716 
        2.15211        0.192367        0.181439 
        2.16785        0.188474        0.178251 
        2.18349        0.185703        0.175159 
        2.19916        0.181525        0.172135 
        2.21489        0.178468        0.169171 
        2.23063        0.175387        0.166276 
         2.2463        0.172883        0.163462 
        2.26194        0.170248         0.16072 
        2.27765         0.16683        0.158026 
        2.29341        0.163843        0.155388 
        2.30914        0.160791        0.152815 
        2.32486        0.158208        0.150302 
        2.34061        0.155645        0.147841 
        2.35635        0.153056        0.145438 
        2.37203        0.152129        0.143097 
        2.38768        0.148321        0.140812 
        2.40339        0.146237        0.138568 
        2.41914        0.143541        0.136369 
        2.43483        0.141584        0.134225 
         2.4505         0.13895         0.13213 
        2.46622        0.136954        0.130074 
        2.48195        0.134808        0.128061 
        2.49759        0.133149        0.126101 
        2.51328        0.129677        0.124177 
        2.52906        0.128391        0.122281 
        2.54479        0.126524        0.120432 
        2.56049        0.124165        0.118625 
        2.57618        0.123142        0.116857 
        2.59189        0.120584        0.115121 
        2.60758        0.119245        0.113424 
        2.62325        0.116889        0.111763 
        2.63898        0.115882         0.11013 
        2.65468        0.113384        0.108533 
        2.67044        0.111973         0.10696 
        2.68618        0.110249        0.105423 
        2.70184        0.109145        0.103922 
        2.71755        0.107034        0.102446 
        2.73329        0.105808        0.100997 
        2.74897         0.10421       0.0995801 
        2.76462        0.102398       0.0981939 
        2.78034        0.101069       0.0968284 
        2.79607        0.100051       0.0954875 
        2.81179       0.0981395       0.0941734 
        2.82749       0.0970634       0.0928856 
        2.84321       0.0955335       0.0916205 
        2.85893       0.0939996       0.0903793 
        2.87462       0.0931471       0.0891632 
        2.89033       0.0915275       0.0879684 
        2.90605       0.0905513       0.0867945 
        2.92176       0.0894118       0.0856426 
        2.93747       0.0879325       0.0845122 
        2.95318       0.0871223        0.083402 
        2.96891       0.0858141       0.0823112 
        2.98456        0.084605       0.0812447 
        3.00023       0.0838245       0.0801956 
        3.01596       0.0820549       0.0791618 
        3.03164       0.0811287       0.0781492 
        3.04738       0.0802553       0.0771513 
         3.0631       0.0788919       0.0761712 
        3.07883       0.0781249       0.0752081 
        3.09456       0.0773057       0.0742618 
        3.11026       0.0760586       0.0733332 
        3.12596        0.075431       0.0724206 
        3.14163       0.0742234       0.0715256 
        3.15734       0.0736205       0.0706437 
        3.17308       0.0724343       0.0697746 
        3.18879       0.0715433       0.0689224 
        3.20447       0.0706192       0.0680857 
         3.2202        0.069844       0.0672604 
         3.2359       0.0690214       0.0664501 
        3.25157       0.0682675       0.0656552 
        3.26729       0.0673065       0.0648708 
        3.28304       0.0667664       0.0640977 
        3.29877       0.0656709       0.0633383 
        3.31446       0.0649104       0.0625928 
        3.33014       0.0643667       0.0618599 
        3.34585       0.0634079       0.0611377 
        3.36158        0.062752       0.0604259 
        3.37727       0.0620194       0.0597277 
        3.39294       0.0614887       0.0590412 
        3.40867       0.0607411       0.0583629 
        3.42439       0.0600491       0.0576957 
        3.44008       0.0595227       0.0570403 
        3.45578       0.0588954       0.0563945 
        3.47153       0.0583262       0.0557573 
        3.48724       0.0574557       0.0551311 
        3.50292       0.0570981       0.0545159 
        3.51859       0.0563393       0.0539104 
        3.53431       0.0556925       0.0533123 
        3.55007       0.0552081       0.0527218 
        3.56577       0.0545707       0.0521425 
        3.58146       0.0540947       0.0515722 
        3.59719       0.0535021        0.051009 
        3.61292       0.0528033       0.0504545 
        3.62859       0.0523796       0.0499104 
        3.64429       0.0519019       0.0493732 
        3.66003       0.0514861       0.0488423 
        3.67578       0.0510544       0.0483193 
        3.69146        0.050491        0.047806 
        3.70712       0.0500026       0.0473011 
        3.72284       0.0493543       0.0468016 
        3.73853       0.0492079       0.0463102 
        3.75422       0.0483991       0.0458257 
        3.76993       0.0481377       0.0453477 
        3.78564       0.0477096       0.0448766 
        3.80137       0.0472971       0.0444116 
        3.81707       0.0467245        0.043954 
        3.83279        0.046232       0.0435026 
        3.84853       0.0458792       0.0430567 
        3.86424       0.0456593        0.042618 
        3.87992       0.0451662       0.0421861 
        3.89561       0.0446221       0.0417601 
        3.91134       0.0442538       0.0413391 
        3.92704       0.0438445       0.0409244 
        3.94273       0.0434658       0.0405158 
        3.95845       0.0431161        0.040112 
        3.97418       0.0426131       0.0397137 
        3.98988       0.0421034       0.0393213 
        4.00554       0.0418843       0.0389352 
        4.02125       0.0414347       0.0385533 
        4.03698        0.040833       0.0381759 
        4.05268       0.0406193       0.0378043 
        4.06839       0.0399849       0.0374375 
         4.0841       0.0394305       0.0370756 
        4.09983       0.0389303        0.036718 
        4.11555       0.0384876       0.0363653 
        4.13124       0.0379789       0.0360182 
        4.14693       0.0376679       0.0356753 
        4.16266       0.0370403        0.035336 
        4.17839        0.036715       0.0350014 
        4.19408       0.0362829       0.0346719 
        4.20977       0.0359179       0.0343465 
        4.22551       0.0355424       0.0340244 
        4.24123       0.0351483       0.0337069 
        4.25691       0.0348445       0.0333942 
        4.27259       0.0344902       0.0330854 
        4.28831       0.0341898       0.0327799 
        4.30404       0.0338702        0.032478 
        4.31974       0.0335302       0.0321805 
        4.33543       0.0332369       0.0318869 
        4.35116       0.0329708       0.0315963 
        4.36688        0.032737       0.0313094 
        4.38255       0.0324485       0.0310271 
        4.39825       0.0323266       0.0307477 
        4.41398       0.0321049       0.0304712 
         4.4297       0.0319292       0.0301984 
        4.44541       0.0316544        0.029929 
        4.46111       0.0314499        0.029663 
        4.47683       0.0313988       0.0294001 
        4.49251       0.0311824       0.0291409 
        4.50819       0.0310539       0.0288849 
         4.5239       0.0309455       0.0286316 
        4.53962       0.0309547       0.0283811 
        4.55535       0.0307839       0.0281334 
        4.57106       0.0306851        0.027889 
        4.58678       0.0305603       0.0276475 
         4.6025       0.0304466       0.0274087 
        4.61821        0.030471       0.0271729 
        4.63391       0.0304134       0.0269401 
         4.6496       0.0303355       0.0267101 
        4.66532       0.0303372       0.0264825 
        4.68103       0.0304982       0.0262576 
        4.69673       0.0303964       0.0260355 
        4.71241       0.0304658       0.0258162 
        4.72811       0.0304035       0.0255991 
        4.74384       0.0304153       0.0253842 
        4.75955       0.0306043       0.0251721 
        4.77525       0.0306319       0.0249626 
        4.79096       0.0306889       0.0247551 
        4.80669       0.0308616       0.0245499 
         4.8224       0.0310131       0.0243473 
        4.83809       0.0310037       0.0241472 
        4.85379       0.0312619       0.0239492 
         4.8695       0.0313652       0.0237533 
        4.88521       0.0315641       0.0235596 
        4.90093       0.0317396       0.0233681 
        4.91663       0.0319449       0.0231789 
        4.93234       0.0320785       0.0229915 
        4.94807       0.0324239       0.0228061 
        4.96377       0.0324562       0.0226231 
        4.97943       0.0329582       0.0224425 
        4.99514       0.0330821       0.0222634 
        5.01086       0.0333623       0.0220861 
        5.02654       0.0336859       0.0219112 
        5.04227       0.0339465       0.0217377 
          5.058       0.0342868        0.021566 
        5.07371       0.0345527       0.0213964 
        5.08942        0.034902       0.0212287 
        5.10513        0.035273       0.0210627 
        5.12084       0.0357404       0.0208985 
        5.13656         0.03634        0.020736 
        5.15225       0.0364513       0.0205755 
        5.16796       0.0370553       0.0204165 
        5.18369       0.0374727        0.020259 
         5.1994       0.0378844       0.0201034 
        5.21509       0.0385641       0.0199496 
        5.23079       0.0388475       0.0197972 
        5.24649       0.0394565       0.0196466 
        5.26217       0.0399017       0.0194976 
        5.27788       0.0406584         0.01935 
        5.29359       0.0411964       0.0192038 
        5.30933       0.0417403        0.019059 
        5.32504       0.0424187       0.0189159 
        5.34073       0.0430389       0.0187744 
        5.35646       0.0435789       0.0186341 
        5.37218       0.0443838       0.0184951 
        5.38789       0.0450293       0.0183579 
        5.40357       0.0459549       0.0182221 
        5.41929       0.0468054       0.0180875 
        5.43502       0.0474839       0.0179542 
         5.4507       0.0481766       0.0178225 
        5.46639       0.0489579       0.0176922 
        5.48212       0.0498322       0.0175628 
        5.49786        0.051031       0.0174346 
        5.51353         0.05202       0.0173083 
        5.52921       0.0525195       0.0171831 
        5.54495       0.0536058       0.0170588 
        5.56066       0.0547707       0.0169359 
        5.57637       0.0557886       0.0168142 
        5.59207       0.0567257       0.0166938 
        5.60778       0.0576369       0.0165745 
        5.62346       0.0586638       0.0164566 
        5.63916        0.060166       0.0163397 
        5.65487       0.0611958       0.0162238 
         5.6706       0.0621216        0.016109 
        5.68633       0.0632505       0.0159952 
        5.70203       0.0647049       0.0158828 
        5.71773       0.0664517       0.0157714 
        5.73344        0.067865       0.0156611 
        5.74916       0.0692379       0.0155517 
        5.76486       0.0708361       0.0154435 
        5.78054       0.0727158       0.0153365 
        5.79626       0.0735027       0.0152302 
          5.812       0.0756235       0.0151248 
         5.8277       0.0767231       0.0150208 
        5.84339       0.0786176       0.0149177 
        5.85911       0.0801501       0.0148153 
        5.87484       0.0817008        0.014714 
        5.89053       0.0841985       0.0146138 
        5.90623       0.0856317       0.0145145 
        5.92195       0.0874243       0.0144159 
        5.93767       0.0897326       0.0143183 
        5.95336        0.091053       0.0142218 
        5.96905        0.093503       0.0141262 
        5.98476       0.0950433       0.0140313 
        6.00048       0.0976378       0.0139373 
        6.01617        0.100138       0.0138442 
        6.03185        0.102089       0.0137522 
        6.04756        0.104366       0.0136607 
        6.06331        0.107492       0.0135699 
        6.07903        0.109074       0.0134801 
        6.09473        0.111261       0.0133912 
        6.11044        0.114555        0.013303 
        6.12616         0.11727       0.0132156 
        6.14186        0.119643       0.0131291 
        6.15755        0.122828       0.0130434 
        6.17326        0.125126       0.0129583 
        6.18898        0.128997        0.012874 
        6.20467         0.13114       0.0127906 
        6.22036        0.135286       0.0127079 
         6.2361        0.137592       0.0126258 
         6.2518         0.14104       0.0125445 
        6.26748        0.143529       0.0124641 
        6.28319        0.147559       0.0123841 
        6.29893         0.15103       0.0123048 
        6.31463        0.154456       0.0122264 
        6.33033        0.157953       0.0121486 
        6.34604        0.162016       0.0120715 
        6.36177        0.166241       0.0119949 
        6.37747        0.169222       0.0119192 
