# k  (h/Mpc)    Pcb(k)  (Mpc/h)^3    Pcb_linear(k) (Mpc/h)^3   ShotnoiseSubtracted = true
      0.0200456         19659.4         20109.8 
      0.0350414         15026.5         15768.2 
      0.0492313         12136.1         12493.2 
      0.0637834         10287.5           10159 
      0.0800726         7813.45         7674.14 
       0.096163         5753.48          6036.2 
       0.111083         4816.56         5109.63 
       0.126058         4272.46         4247.56 
       0.142273         3609.59          3456.4 
       0.158546         3289.43         2944.45 
        0.17375         2671.76         2561.77 
       0.188953         2568.58         2202.34 
       0.204907          2405.1         1906.44 
       0.220756         2112.27         1684.99 
        0.23588         1890.02         1496.64 
         0.2514         1647.08         1326.14 
       0.267535         1648.13         1182.69 
       0.283568         1498.12         1062.75 
       0.299022         1418.52         959.694 
       0.314451         1353.19         870.115 
       0.330372         1244.31         791.146 
       0.346141         1196.99         722.224 
       0.361624         1147.81         661.933 
       0.377134         1069.22         608.611 
       0.392932         1031.71         560.562 
       0.408854         1008.71         517.238 
       0.424564          937.41         478.865 
       0.440253         919.608         444.517 
       0.455999         891.199         413.461 
       0.471626          854.13         385.529 
        0.48727         822.707         360.145 
       0.502856         799.184         337.142 
       0.518488         790.436         316.089 
       0.534347         742.024          296.56 
       0.550082         724.289         278.816 
       0.565732         721.745         262.613 
       0.581496         681.837         247.596 
       0.597222         670.279         233.785 
       0.612804          657.44         221.143 
       0.628434         638.602         209.406 
       0.644267         621.692         198.388 
       0.660051         602.205         188.196 
       0.675724         598.488         178.786 
       0.691403         577.561         170.019 
       0.707174         559.759         161.795 
       0.722871         553.499         154.152 
        0.73838         542.296         147.087 
       0.754018         531.018         140.414 
       0.769845         520.388         134.083 
        0.78569         510.732         128.138 
       0.801365         497.803         122.612 
       0.817031         484.927         117.417 
       0.832809         480.816          112.49 
       0.848511         469.628         107.869 
       0.864097         455.548          103.54 
       0.879701         449.893          99.445 
       0.895507         447.163         95.5239 
       0.911279         434.093         91.8232 
        0.92691          428.12         88.3499 
       0.942635         417.204         85.0378 
       0.958396         405.379         81.8893 
       0.974128         400.525         78.9066 
       0.989692         395.914         76.1026 
        1.00528         385.719         73.4314 
        1.02113         384.058         70.8472 
        1.03692         372.317         68.3976 
        1.05264         369.764         66.0756 
        1.06832         359.641         63.8656 
        1.08405         355.183         61.7513 
        1.09979         349.878         59.7319 
        1.11537         342.571         57.8232 
        1.13105         336.498         55.9869 
        1.14679         330.031         54.2236 
        1.16256         321.022         52.5331 
        1.17828         321.719         50.9206 
        1.19395         313.729         49.3814 
         1.2097          309.08         47.8983 
        1.22537         301.446         46.4835 
          1.241         299.723         45.1303 
        1.25666         293.081         43.8278 
        1.27241         289.571         42.5708 
        1.28819         284.793         41.3611 
        1.30392         278.332         40.2021 
        1.31957         276.779         39.0929 
        1.33529         271.653         38.0215 
        1.35108         265.885         36.9862 
        1.36674         261.351          35.997 
         1.3824         259.954          35.045 
        1.39811         255.308         34.1243 
        1.41389         253.021         33.2333 
        1.42964         249.346         32.3758 
        1.44531         245.016         31.5527 
        1.46101         241.118         30.7566 
        1.47667         237.951         29.9905 
        1.49229         234.844         29.2525 
        1.50793          229.91         28.5387 
        1.52367         227.646         27.8441 
        1.53953         223.836          27.168 
        1.55526         219.042         26.5199 
        1.57092         218.218         25.8956 
        1.58662         214.987           25.29 
        1.60235         210.996         24.7027 
        1.61809         208.396         24.1337 
        1.63369         205.644         23.5878 
        1.64941          201.85         23.0549 
        1.66519         199.659         22.5366 
        1.68085         197.246         22.0379 
        1.69652         193.623         21.5542 
        1.71228         189.592         21.0823 
        1.72806          187.93         20.6242 
        1.74368         184.945         20.1844 
        1.75933         182.157         19.7565 
        1.77505         180.982         19.3391 
        1.79081         178.574          18.933 
         1.8065         175.287         18.5403 
        1.82218         172.904         18.1591 
        1.83797          171.55         17.7861 
        1.85367         168.484         17.4256 
        1.86928         165.439         17.0773 
        1.88497         163.502         16.7366 
        1.90073         161.941          16.404 
        1.91647         160.026         16.0807 
        1.93218         157.685         15.7669 
        1.94787          154.44         15.4619 
        1.96363         152.116         15.1637 
        1.97935         151.661         14.8741 
        1.99499         148.834         14.5937 
        2.01064         147.405         14.3201 
         2.0264         145.559         14.0518 
        2.04216         143.459         13.7905 
        2.05781         141.545         13.5376 
        2.07353         139.547           13.29 
        2.08928         137.711         13.0482 
        2.10499          135.74          12.813 
        2.12065         133.817         12.5843 
        2.13633         132.903         12.3611 
        2.15211         130.301         12.1418 
        2.16785         128.634         11.9284 
        2.18349         127.459         11.7215 
        2.19916         125.526         11.5191 
        2.21489         124.443         11.3208 
        2.23063         122.234         11.1271 
         2.2463         120.312         10.9387 
        2.26194         118.836         10.7552 
        2.27765         117.865          10.575 
        2.29341         116.365         10.3984 
        2.30914         115.154         10.2263 
        2.32486         113.328         10.0581 
        2.34061         111.794         9.89344 
        2.35635         110.384         9.73262 
        2.37203          109.45         9.57593 
        2.38768          107.54         9.42302 
        2.40339         106.665          9.2729 
        2.41914         105.289          9.1257 
        2.43483         104.079         8.98222 
         2.4505         102.978         8.84207 
        2.46622         101.628         8.70443 
        2.48195         100.256         8.56972 
        2.49759         98.9752         8.43857 
        2.51328          98.181         8.30984 
        2.52906         96.7014         8.18297 
        2.54479         95.7109         8.05924 
        2.56049         94.7538          7.9383 
        2.57618          93.388         7.81995 
        2.59189         92.5825         7.70383 
        2.60758         91.3416         7.59026 
        2.62325         89.9048         7.47912 
        2.63898         88.7254         7.36982 
        2.65468         88.2124         7.26293 
        2.67044         86.9621         7.15771 
        2.68618         85.8634         7.05481 
        2.70184         85.3458         6.95435 
        2.71755         84.2808          6.8556 
        2.73329         83.1023         6.75862 
        2.74897         82.2975         6.66382 
        2.76462         81.1426         6.57106 
        2.78034          80.578         6.47968 
        2.79607         79.1456         6.38995 
        2.81179          78.493         6.30201 
        2.82749         77.4872         6.21583 
        2.84321         76.8888         6.13117 
        2.85893           75.93         6.04811 
        2.87462         74.9432         5.96673 
        2.89033         74.0877         5.88678 
        2.90605         73.2809         5.80822 
        2.92176         72.3171         5.73113 
        2.93747         71.7336         5.65549 
        2.95318         70.6671         5.58119 
        2.96891         70.1989          5.5082 
        2.98456         69.4561         5.43684 
        3.00023         68.5913         5.36663 
        3.01596         67.6663         5.29745 
        3.03164         67.1498         5.22968 
        3.04738          66.456         5.16291 
         3.0631         65.6435         5.09732 
        3.07883          65.029         5.03287 
        3.09456         64.4933         4.96954 
        3.11026         63.6341          4.9074 
        3.12596         62.8148         4.84633 
        3.14163         62.1713         4.78644 
        3.15734         61.4845         4.72742 
        3.17308          61.004         4.66926 
        3.18879         60.2679         4.61224 
        3.20447         59.5937         4.55624 
         3.2202         59.1712         4.50101 
         3.2359         58.2407         4.44679 
        3.25157         57.6608         4.39359 
        3.26729         57.2364          4.3411 
        3.28304         56.7468         4.28937 
        3.29877         55.8344         4.23855 
        3.31446         55.3566         4.18866 
        3.33014         54.9659         4.13962 
        3.34585         54.0772         4.09129 
        3.36158         53.7004         4.04366 
        3.37727         53.2789         3.99693 
        3.39294         52.5305         3.95099 
        3.40867         52.1681          3.9056 
        3.42439         51.5819         3.86095 
        3.44008         51.0526         3.81709 
        3.45578         50.3911         3.77388 
        3.47153          50.028         3.73124 
        3.48724          49.551         3.68933 
        3.50292         49.1736         3.64816 
        3.51859         48.6984         3.60765 
        3.53431         48.1735         3.56762 
        3.55007         47.5947          3.5281 
        3.56577          47.433         3.48933 
        3.58146         46.7063         3.45117 
        3.59719         46.2598         3.41349 
        3.61292         45.8038         3.37638 
        3.62859         45.2687         3.33996 
        3.64429         45.0039         3.30401 
        3.66003         44.4801         3.26849 
        3.67578         44.0164         3.23349 
        3.69146         43.6644         3.19914 
        3.70712         43.0627         3.16535 
        3.72284         42.6271         3.13193 
        3.73853         42.3153         3.09904 
        3.75422         41.8558         3.06662 
        3.76993          41.364         3.03463 
        3.78564         41.0322         3.00311 
        3.80137         40.7296         2.97199 
        3.81707         40.3804         2.94137 
        3.83279         39.9552         2.91116 
        3.84853          39.617         2.88132 
        3.86424         39.2102         2.85196 
        3.87992          38.854         2.82306 
        3.89561         38.5502         2.79455 
        3.91134         38.0482         2.76638 
        3.92704         37.7207         2.73863 
        3.94273         37.3864         2.71128 
        3.95845         37.0907         2.68427 
        3.97418         36.8592         2.65761 
        3.98988         36.3511         2.63135 
        4.00554         36.1164         2.60552 
        4.02125         35.7845         2.57996 
        4.03698          35.444          2.5547 
        4.05268         35.1302         2.52984 
        4.06839         34.8395         2.50529 
         4.0841         34.4432         2.48107 
        4.09983         34.2777         2.45714 
        4.11555         33.8887         2.43354 
        4.13124         33.5992         2.41031 
        4.14693         33.2715         2.38736 
        4.16266         33.0503         2.36466 
        4.17839         32.6943         2.34227 
        4.19408         32.3423         2.32022 
        4.20977         32.1106         2.29844 
        4.22551         31.8442         2.27689 
        4.24123         31.5409         2.25564 
        4.25691         31.2466         2.23472 
        4.27259          30.968         2.21405 
        4.28831         30.7335         2.19361 
        4.30404         30.4506          2.1734 
        4.31974         30.1037          2.1535 
        4.33543         29.9007         2.13385 
        4.35116         29.5882          2.1144 
        4.36688         29.4462          2.0952 
        4.38255         29.1767         2.07631 
        4.39825         28.9083         2.05761 
        4.41398          28.694         2.03911 
         4.4297         28.3614         2.02085 
        4.44541         28.1567         2.00282 
        4.46111         27.8404         1.98503 
        4.47683         27.7067         1.96743 
        4.49251         27.4465         1.95009 
        4.50819         27.2278         1.93296 
         4.5239         26.9841         1.91601 
        4.53962          26.773         1.89924 
        4.55535         26.5644         1.88266 
        4.57106         26.3163         1.86631 
        4.58678         26.1911         1.85015 
         4.6025         25.9329         1.83417 
        4.61821         25.7058         1.81839 
        4.63391         25.4582         1.80281 
         4.6496         25.2445         1.78742 
        4.66532         25.0008         1.77219 
        4.68103         24.8357         1.75714 
        4.69673         24.6837         1.74228 
        4.71241         24.5099          1.7276 
        4.72811         24.2456         1.71307 
        4.74384         24.0713         1.69869 
        4.75955         23.8427          1.6845 
        4.77525         23.6114         1.67048 
        4.79096         23.5116         1.65659 
        4.80669         23.3115         1.64286 
         4.8224         23.1222          1.6293 
        4.83809         22.9119         1.61591 
        4.85379         22.7046         1.60266 
         4.8695         22.5327         1.58955 
        4.88521         22.3425         1.57659 
        4.90093         22.1643         1.56377 
        4.91663         21.9878         1.55111 
        4.93234         21.7986         1.53858 
        4.94807         21.6451         1.52617 
        4.96377         21.4813         1.51392 
        4.97943         21.3341         1.50184 
        4.99514         21.1293         1.48985 
        5.01086          20.987         1.47799 
        5.02654         20.8126         1.46628 
        5.04227          20.654         1.45467 
          5.058         20.4651         1.44318 
        5.07371         20.3329         1.43183 
        5.08942         20.1464         1.42061 
        5.10513         20.0084          1.4095 
        5.12084          19.828         1.39851 
        5.13656         19.7138         1.38764 
        5.15225         19.5801          1.3769 
        5.16796         19.3816         1.36625 
        5.18369         19.2705         1.35571 
         5.1994         19.1119          1.3453 
        5.21509         18.9634         1.33501 
        5.23079         18.7858         1.32482 
        5.24649         18.6692         1.31473 
        5.26217         18.5441         1.30477 
        5.27788         18.4108         1.29488 
        5.29359         18.2236          1.2851 
        5.30933         18.0861         1.27541 
        5.32504         17.9705         1.26584 
        5.34073         17.8586         1.25637 
        5.35646         17.7107         1.24698 
        5.37218         17.5753         1.23768 
        5.38789         17.4351         1.22849 
        5.40357          17.322         1.21941 
        5.41929         17.1994          1.2104 
        5.43502         17.0518         1.20148 
         5.4507         16.9397         1.19267 
        5.46639         16.7802         1.18395 
        5.48212         16.6376         1.17529 
        5.49786         16.5309         1.16671 
        5.51353         16.4161         1.15826 
        5.52921         16.3322         1.14988 
        5.54495         16.2105         1.14156 
        5.56066         16.0607         1.13334 
        5.57637         15.9617         1.12519 
        5.59207         15.8317         1.11714 
        5.60778         15.7206         1.10915 
        5.62346          15.608         1.10126 
        5.63916         15.5306         1.09344 
        5.65487         15.3882         1.08569 
         5.6706         15.2666           1.078 
        5.68633         15.1637         1.07039 
        5.70203         15.0718         1.06286 
        5.71773         14.9621         1.05541 
        5.73344         14.8619         1.04803 
        5.74916         14.7286         1.04071 
        5.76486          14.628         1.03347 
        5.78054         14.5472         1.02631 
        5.79626         14.4395         1.01919 
          5.812         14.2939         1.01214 
         5.8277         14.2189         1.00518 
        5.84339         14.1155        0.998279 
        5.85911         14.0073        0.991431 
        5.87484         13.9234        0.984648 
        5.89053         13.8422        0.977943 
        5.90623         13.7225        0.971297 
        5.92195         13.6153        0.964701 
        5.93767         13.5132         0.95817 
        5.95336         13.4322         0.95171 
        5.96905         13.3432        0.945312 
        5.98476         13.2369        0.938963 
        6.00048         13.1422        0.932671 
        6.01617         13.0802        0.926445 
        6.03185          12.996        0.920284 
        6.04756         12.8745        0.914164 
        6.06331          12.789        0.908086 
        6.07903         12.6972        0.902076 
        6.09473         12.6153        0.896126 
        6.11044         12.5312        0.890225 
        6.12616         12.4171        0.884377 
        6.14186         12.3689        0.878588 
        6.15755         12.2667        0.872851 
        6.17326         12.1979        0.867161 
        6.18898         12.1227        0.861518 
        6.20467         12.0306        0.855937 
        6.22036         11.9273        0.850404 
         6.2361         11.8527        0.844906 
         6.2518         11.7631        0.839466 
        6.26748         11.7129        0.834085 
        6.28319         11.6154        0.828736 
        6.29893         11.5297         0.82343 
        6.31463         11.4685        0.818179 
        6.33033         11.3943        0.812976 
        6.34604         11.3284        0.807814 
        6.36177         11.2249        0.802692 
        6.37747         11.1523        0.797624 
