# k  (h/Mpc)    Pcb(k)  (Mpc/h)^3    Pcb_linear(k) (Mpc/h)^3   ShotnoiseSubtracted = true
      0.0200456         24792.2         25421.3 
      0.0350414         18846.4         19932.9 
      0.0492313         15227.5           15793 
      0.0637834         12975.3         12842.2 
      0.0800726         9852.21         9701.05 
       0.096163         7218.14          7630.5 
       0.111083         6068.99          6459.2 
       0.126058         5387.29         5369.44 
       0.142273         4567.67         4369.31 
       0.158546         4225.35         3722.14 
        0.17375         3438.65         3238.39 
       0.188953         3327.96         2784.03 
       0.204907         3118.36         2409.98 
       0.220756         2749.47         2130.04 
        0.23588         2480.95         1891.93 
         0.2514         2177.46          1676.4 
       0.267535          2188.8         1495.07 
       0.283568         1988.98         1343.45 
       0.299022         1896.99         1213.17 
       0.314451         1807.39         1099.93 
       0.330372         1654.05         1000.11 
       0.346141         1633.13          912.98 
       0.361624         1567.43         836.764 
       0.377134         1467.58         769.359 
       0.392932          1410.7         708.619 
       0.408854         1385.84         653.852 
       0.424564         1280.22         605.344 
       0.440253         1254.39         561.924 
       0.455999         1239.66         522.665 
       0.471626         1189.46         487.356 
        0.48727         1148.66         455.268 
       0.502856         1103.89         426.189 
       0.518488         1108.01         399.576 
       0.534347         1037.46         374.888 
       0.550082         1026.29         352.458 
       0.565732         1011.33         331.975 
       0.581496         966.158         312.991 
       0.597222         942.657         295.532 
       0.612804         930.935         279.552 
       0.628434         908.097         264.715 
       0.644267         884.294         250.787 
       0.660051         865.375         237.903 
       0.675724         858.748         226.008 
       0.691403         833.142         214.924 
       0.707174         806.216         204.529 
       0.722871         788.485         194.867 
        0.73838         775.411         185.936 
       0.754018          765.01           177.5 
       0.769845         750.712         169.497 
        0.78569         740.284         161.982 
       0.801365         719.857         154.997 
       0.817031          708.11         148.429 
       0.832809         697.721         142.201 
       0.848511         682.021          136.36 
       0.864097          661.35         130.887 
       0.879701         651.883         125.711 
       0.895507         651.093         120.754 
       0.911279         638.235         116.076 
        0.92691         627.702         111.685 
       0.942635          608.88         107.498 
       0.958396         597.178         103.518 
       0.974128         591.765         99.7476 
       0.989692          584.02          96.203 
        1.00528         563.914         92.8263 
        1.02113          564.46         89.5596 
        1.03692         550.172         86.4629 
        1.05264         541.642         83.5277 
        1.06832         530.378         80.7339 
        1.08405          523.98         78.0612 
        1.09979         516.215         75.5084 
        1.11537         507.752         73.0956 
        1.13105         500.911         70.7743 
        1.14679         489.016         68.5452 
        1.16256         478.216         66.4083 
        1.17828         477.233         64.3698 
        1.19395         467.579         62.4242 
         1.2097         454.727         60.5493 
        1.22537         449.326         58.7608 
          1.241         441.092         57.0502 
        1.25666         436.362         55.4037 
        1.27241         428.237         53.8147 
        1.28819         418.037         52.2855 
        1.30392         413.996         50.8204 
        1.31957         406.282         49.4182 
        1.33529         403.574         48.0639 
        1.35108         394.084         46.7551 
        1.36674         387.793         45.5046 
         1.3824         383.696         44.3011 
        1.39811         375.427         43.1373 
        1.41389         371.551          42.011 
        1.42964         367.251         40.9269 
        1.44531         363.647         39.8865 
        1.46101         353.843         38.8802 
        1.47667         348.104         37.9116 
        1.49229         345.427         36.9788 
        1.50793         335.058         36.0764 
        1.52367         335.171         35.1983 
        1.53953         326.021         34.3437 
        1.55526         324.581         33.5244 
        1.57092         321.675         32.7352 
        1.58662         315.157         31.9697 
        1.60235         309.365         31.2272 
        1.61809         304.966          30.508 
        1.63369         300.734         29.8178 
        1.64941          294.32         29.1442 
        1.66519          292.32          28.489 
        1.68085          289.36         27.8586 
        1.69652         284.703         27.2472 
        1.71228         277.258         26.6507 
        1.72806         273.923         26.0716 
        1.74368         269.718         25.5155 
        1.75933         267.476         24.9747 
        1.77505         263.424         24.4469 
        1.79081         260.388         23.9336 
         1.8065         254.904         23.4372 
        1.82218         251.931         22.9553 
        1.83797         250.612         22.4838 
        1.85367         245.817         22.0281 
        1.86928         240.924         21.5878 
        1.88497         239.383         21.1571 
        1.90073         234.989         20.7366 
        1.91647         232.459          20.328 
        1.93218         228.696         19.9312 
        1.94787         225.369         19.5457 
        1.96363         222.135         19.1688 
        1.97935         218.676         18.8027 
        1.99499         216.358         18.4482 
        2.01064         212.841         18.1023 
         2.0264         211.293         17.7632 
        2.04216         208.892         17.4329 
        2.05781         205.285         17.1131 
        2.07353          202.02         16.8002 
        2.08928         198.277         16.4945 
        2.10499         196.736         16.1972 
        2.12065          194.42         15.9081 
        2.13633         191.719         15.6259 
        2.15211         188.828         15.3487 
        2.16785         187.223          15.079 
        2.18349         184.751         14.8174 
        2.19916          181.79         14.5616 
        2.21489         179.815         14.3109 
        2.23063         177.412          14.066 
         2.2463         174.153         13.8279 
        2.26194          172.56         13.5959 
        2.27765         169.601         13.3681 
        2.29341         167.644         13.1449 
        2.30914         165.461         12.9273 
        2.32486         164.522         12.7147 
        2.34061         161.209         12.5065 
        2.35635         160.061         12.3032 
        2.37203         157.974         12.1051 
        2.38768         155.272         11.9118 
        2.40339         153.584         11.7221 
        2.41914         152.056          11.536 
        2.43483         150.248         11.3546 
         2.4505          148.65         11.1775 
        2.46622         146.603         11.0035 
        2.48195         144.744         10.8332 
        2.49759         143.617         10.6674 
        2.51328         142.147         10.5047 
        2.52906         139.924         10.3443 
        2.54479         138.095         10.1879 
        2.56049          136.21          10.035 
        2.57618         135.309         9.88537 
        2.59189         133.163         9.73859 
        2.60758         131.301         9.59502 
        2.62325         130.131         9.45452 
        2.63898         128.661         9.31635 
        2.65468         127.175         9.18123 
        2.67044         125.343         9.04822 
        2.68618           124.5         8.91815 
        2.70184         122.488         8.79115 
        2.71755         121.519         8.66632 
        2.73329         119.632         8.54372 
        2.74897         118.539         8.42389 
        2.76462         117.098         8.30663 
        2.78034         116.005         8.19111 
        2.79607         114.301         8.07768 
        2.81179         113.774         7.96652 
        2.82749         112.335         7.85758 
        2.84321         110.155         7.75055 
        2.85893         109.084         7.64555 
        2.87462         108.082         7.54268 
        2.89033         106.672         7.44161 
        2.90605          105.71          7.3423 
        2.92176         104.175         7.24486 
        2.93747         103.036         7.14923 
        2.95318         102.581         7.05531 
        2.96891         100.999         6.96304 
        2.98456          100.11         6.87283 
        3.00023         99.1207         6.78408 
        3.01596         97.7174         6.69662 
        3.03164         96.8146         6.61096 
        3.04738         96.0256         6.52655 
         3.0631         94.6759         6.44363 
        3.07883         93.3912         6.36216 
        3.09456         92.4306         6.28211 
        3.11026         92.0641         6.20355 
        3.12596          90.833         6.12635 
        3.14163         89.6611         6.05065 
        3.15734         88.8198         5.97604 
        3.17308         88.0648         5.90252 
        3.18879         86.7575         5.83043 
        3.20447         85.9958         5.75965 
         3.2202         85.1058         5.68983 
         3.2359         84.2772         5.62129 
        3.25157         83.5343         5.55404 
        3.26729         82.4404         5.48769 
        3.28304         81.7647         5.42229 
        3.29877         80.9309         5.35804 
        3.31446         80.1454         5.29498 
        3.33014         79.2412         5.23298 
        3.34585          78.593         5.17189 
        3.36158         77.5724         5.11168 
        3.37727         76.7328         5.05261 
        3.39294         76.0494         4.99453 
        3.40867         75.2599         4.93716 
        3.42439         74.3415         4.88072 
        3.44008          73.507         4.82527 
        3.45578         72.8485         4.77064 
        3.47153         72.3988         4.71674 
        3.48724          71.685         4.66376 
        3.50292         71.0393         4.61173 
        3.51859         70.4128         4.56051 
        3.53431         69.7206          4.5099 
        3.55007         68.9117         4.45995 
        3.56577         67.9623         4.41095 
        3.58146         67.5323          4.3627 
        3.59719         66.8874         4.31506 
        3.61292         66.3286         4.26816 
        3.62859         65.5979         4.22212 
        3.64429         64.7896         4.17668 
        3.66003         64.2986         4.13177 
        3.67578         63.5303         4.08753 
        3.69146         63.1716         4.04411 
        3.70712         62.4365         4.00139 
        3.72284           61.93         3.95914 
        3.73853          61.318         3.91757 
        3.75422         60.5567         3.87658 
        3.76993         60.3735         3.83614 
        3.78564         59.4851          3.7963 
        3.80137         59.0136         3.75695 
        3.81707          58.473         3.71825 
        3.83279         57.8516         3.68006 
        3.84853         57.3676         3.64234 
        3.86424         56.8856         3.60523 
        3.87992         56.3202         3.56869 
        3.89561         55.8406         3.53265 
        3.91134         55.1809         3.49704 
        3.92704         54.9936         3.46196 
        3.94273         54.3401          3.4274 
        3.95845          53.817         3.39324 
        3.97418         53.3113         3.35954 
        3.98988         52.8159         3.32635 
        4.00554         52.4256         3.29369 
        4.02125         51.8678         3.26138 
        4.03698         51.4049         3.22945 
        4.05268         50.8391         3.19802 
        4.06839          50.465         3.16699 
         4.0841          50.028         3.13638 
        4.09983         49.5738         3.10613 
        4.11555         49.0956         3.07629 
        4.13124           48.59         3.04692 
        4.14693         48.2923         3.01792 
        4.16266         47.8833         2.98922 
        4.17839         47.4849         2.96091 
        4.19408         47.0095         2.93304 
        4.20977         46.5773         2.90551 
        4.22551         46.0888         2.87827 
        4.24123         45.7784          2.8514 
        4.25691          45.429         2.82495 
        4.27259         44.8728         2.79883 
        4.28831         44.5515         2.77299 
        4.30404         44.1588         2.74745 
        4.31974         43.7758         2.72228 
        4.33543         43.4268         2.69745 
        4.35116         42.9953         2.67286 
        4.36688         42.6998         2.64859 
        4.38255         42.3335         2.62471 
        4.39825          42.007         2.60108 
        4.41398          41.667         2.57768 
         4.4297         41.2114         2.55461 
        4.44541         40.8963         2.53181 
        4.46111         40.5251         2.50932 
        4.47683          40.144         2.48708 
        4.49251         39.8514         2.46515 
        4.50819         39.5208         2.44349 
         4.5239         39.2352         2.42207 
        4.53962         38.8156         2.40087 
        4.55535         38.5045         2.37992 
        4.57106         38.3197         2.35924 
        4.58678         37.8208         2.33881 
         4.6025         37.6166         2.31862 
        4.61821          37.282         2.29866 
        4.63391         36.9506         2.27897 
         4.6496         36.5478         2.25952 
        4.66532         36.3039         2.24026 
        4.68103         36.0012         2.22124 
        4.69673         35.7472         2.20245 
        4.71241         35.3963          2.1839 
        4.72811         35.2279         2.16553 
        4.74384         34.8302         2.14736 
        4.75955          34.569         2.12941 
        4.77525         34.2071         2.11168 
        4.79096         33.9689         2.09414 
        4.80669          33.732         2.07678 
         4.8224         33.5411         2.05964 
        4.83809         33.1384         2.04271 
        4.85379         32.8817         2.02596 
         4.8695         32.6599         2.00939 
        4.88521         32.4392         1.99301 
        4.90093         32.0833          1.9768 
        4.91663         31.8327          1.9608 
        4.93234         31.6289         1.94495 
        4.94807         31.3502         1.92926 
        4.96377         31.1412         1.91378 
        4.97943          30.868          1.8985 
        4.99514         30.7188         1.88335 
        5.01086         30.3915         1.86836 
        5.02654         30.1991         1.85356 
        5.04227         29.9271         1.83888 
          5.058         29.7025         1.82435 
        5.07371         29.4579         1.81001 
        5.08942         29.2856         1.79582 
        5.10513         29.0796         1.78178 
        5.12084         28.8091         1.76789 
        5.13656         28.6317         1.75414 
        5.15225         28.3541         1.74057 
        5.16796         28.1697         1.72711 
        5.18369         27.9441         1.71379 
         5.1994         27.7614         1.70063 
        5.21509         27.5565         1.68762 
        5.23079         27.2528         1.67473 
        5.24649         27.0528         1.66199 
        5.26217         26.8638         1.64938 
        5.27788         26.6339         1.63689 
        5.29359         26.4095         1.62453 
        5.30933         26.2889         1.61228 
        5.32504         26.0423         1.60017 
        5.34073         25.8275          1.5882 
        5.35646         25.6794         1.57633 
        5.37218         25.4992         1.56458 
        5.38789         25.2762         1.55297 
        5.40357         25.0489         1.54149 
        5.41929         24.9237         1.53009 
        5.43502         24.7857         1.51882 
         5.4507         24.5435         1.50768 
        5.46639          24.308         1.49665 
        5.48212         24.2357         1.48571 
        5.49786         23.9966         1.47487 
        5.51353         23.8424         1.46418 
        5.52921         23.6243         1.45359 
        5.54495         23.4941         1.44308 
        5.56066         23.2882         1.43268 
        5.57637         23.1442         1.42238 
        5.59207         22.9369          1.4122 
        5.60778         22.7873         1.40211 
        5.62346         22.5976         1.39213 
        5.63916         22.4127         1.38224 
        5.65487          22.316         1.37244 
         5.6706         22.0873         1.36272 
        5.68633         21.9514          1.3531 
        5.70203         21.8082         1.34359 
        5.71773         21.6156         1.33417 
        5.73344          21.486         1.32483 
        5.74916         21.3429         1.31558 
        5.76486         21.2128         1.30643 
        5.78054         21.0478         1.29738 
        5.79626         20.8757         1.28839 
          5.812         20.7306         1.27947 
         5.8277          20.626         1.27067 
        5.84339         20.4189         1.26195 
        5.85911          20.253         1.25329 
        5.87484         20.1657         1.24472 
        5.89053          20.023         1.23624 
        5.90623         19.8614         1.22784 
        5.92195         19.7319          1.2195 
        5.93767         19.6024         1.21124 
        5.95336          19.483         1.20308 
        5.96905         19.2517         1.19499 
        5.98476         19.1572         1.18696 
        6.00048         19.0616         1.17901 
        6.01617         18.8814         1.17114 
        6.03185         18.7467         1.16335 
        6.04756         18.6371         1.15561 
        6.06331         18.5087         1.14793 
        6.07903          18.391         1.14033 
        6.09473         18.2484         1.13281 
        6.11044         18.0984         1.12535 
        6.12616         17.9899         1.11796 
        6.14186         17.8997         1.11064 
        6.15755         17.7898         1.10339 
        6.17326         17.5928          1.0962 
        6.18898         17.4753         1.08906 
        6.20467         17.4008         1.08201 
        6.22036         17.2774         1.07502 
         6.2361         17.1544         1.06806 
         6.2518         17.0371         1.06119 
        6.26748         16.9005         1.05439 
        6.28319         16.7974         1.04762 
        6.29893         16.7064         1.04092 
        6.31463         16.5588         1.03428 
        6.33033         16.4345          1.0277 
        6.34604         16.3474         1.02118 
        6.36177         16.2276          1.0147 
        6.37747         16.1301         1.00829 
