# k  (h/Mpc)    Pcb(k)  (Mpc/h)^3    Pcb_linear(k) (Mpc/h)^3   ShotnoiseSubtracted = true
      0.0200456         16957.1           17205 
      0.0350414         13830.7         13490.4 
      0.0492313         10427.6         10688.6 
      0.0637834         8245.13         8691.52 
      0.0800726         6231.87         6565.61 
       0.096163         5266.24         5164.27 
       0.111083         4496.69         4371.55 
       0.126058         3575.29            3634 
       0.142273         3048.78         2957.12 
       0.158546         2607.04         2519.12 
        0.17375         2349.47         2191.72 
       0.188953         2169.75         1884.21 
       0.204907         1859.34         1631.06 
       0.220756         1690.33         1441.59 
        0.23588            1520         1280.45 
         0.2514         1369.81         1134.58 
       0.267535          1322.1         1011.85 
       0.283568         1175.51         909.236 
       0.299022         1126.19         821.066 
       0.314451         1163.78         744.426 
       0.330372         1019.04         676.865 
       0.346141         939.989         617.899 
       0.361624         903.004         566.317 
       0.377134         861.125         520.697 
       0.392932         829.361         479.589 
       0.408854         790.274         442.523 
       0.424564         772.693         409.693 
       0.440253         712.677         380.307 
       0.455999         682.682         353.737 
       0.471626         693.734         329.839 
        0.48727         656.238         308.122 
       0.502856         619.196         288.442 
       0.518488         610.585          270.43 
       0.534347         577.266         253.722 
       0.550082         553.928         238.541 
       0.565732         548.335         224.679 
       0.581496         535.423          211.83 
       0.597222         521.225         200.014 
       0.612804         511.267         189.199 
       0.628434         489.166         179.158 
       0.644267         473.076         169.731 
       0.660051         466.614         161.011 
       0.675724          458.29         152.961 
       0.691403         446.574         145.459 
       0.707174         430.662         138.424 
       0.722871         422.383         131.885 
        0.73838         418.466          125.84 
       0.754018         404.021         120.131 
       0.769845          399.91         114.715 
        0.78569         391.568         109.628 
       0.801365         379.726         104.901 
       0.817031         374.949         100.456 
       0.832809         370.333         96.2409 
       0.848511         361.151         92.2873 
       0.864097         353.055         88.5835 
       0.879701         349.532         85.0801 
       0.895507          337.85         81.7255 
       0.911279         331.757         78.5593 
        0.92691          328.45         75.5877 
       0.942635         326.214         72.7541 
       0.958396         315.041         70.0604 
       0.974128         311.154         67.5085 
       0.989692         299.581         65.1096 
        1.00528         299.284         62.8243 
        1.02113         293.736         60.6133 
        1.03692         287.828         58.5176 
        1.05264         282.795          56.531 
        1.06832         280.908         54.6402 
        1.08405         274.828         52.8313 
        1.09979         271.466         51.1036 
        1.11537         264.149         49.4706 
        1.13105         260.963         47.8996 
        1.14679          257.31          46.391 
        1.16256         254.602         44.9447 
        1.17828         250.498         43.5651 
        1.19395         243.932         42.2483 
         1.2097         243.737         40.9794 
        1.22537         239.625          39.769 
          1.241         234.792         38.6112 
        1.25666         231.984         37.4969 
        1.27241         227.754         36.4214 
        1.28819          224.69         35.3865 
        1.30392         221.678         34.3949 
        1.31957         216.282         33.4459 
        1.33529         213.687         32.5293 
        1.35108         211.466         31.6436 
        1.36674         207.325         30.7972 
         1.3824         205.158         29.9827 
        1.39811         202.506         29.1951 
        1.41389         197.441         28.4328 
        1.42964         195.391         27.6991 
        1.44531         192.773         26.9949 
        1.46101         189.734         26.3138 
        1.47667         187.055         25.6583 
        1.49229         184.515          25.027 
        1.50793         181.796         24.4163 
        1.52367         179.607          23.822 
        1.53953         175.272         23.2436 
        1.55526         174.986         22.6891 
        1.57092         172.914          22.155 
        1.58662         168.468         21.6369 
        1.60235         166.967         21.1344 
        1.61809         163.808         20.6476 
        1.63369         161.524         20.1805 
        1.64941         160.191         19.7246 
        1.66519         157.541         19.2812 
        1.68085         154.918         18.8545 
        1.69652         153.063         18.4407 
        1.71228         151.131          18.037 
        1.72806         148.856         17.6451 
        1.74368          147.43         17.2688 
        1.75933         145.825         16.9027 
        1.77505         143.186         16.5455 
        1.79081         140.595         16.1981 
         1.8065         138.819         15.8621 
        1.82218         136.431          15.536 
        1.83797         135.982         15.2169 
        1.85367          133.83         14.9085 
        1.86928         131.751         14.6105 
        1.88497         130.388          14.319 
        1.90073         129.061         14.0344 
        1.91647          126.68         13.7579 
        1.93218         125.285         13.4893 
        1.94787         123.278         13.2284 
        1.96363         122.601         12.9733 
        1.97935         120.605         12.7255 
        1.99499         119.628         12.4856 
        2.01064         116.943         12.2515 
         2.0264         115.683          12.022 
        2.04216         114.193         11.7985 
        2.05781          112.78         11.5821 
        2.07353         111.139         11.3703 
        2.08928         109.857         11.1634 
        2.10499         108.476         10.9622 
        2.12065         107.628         10.7665 
        2.13633         106.369         10.5755 
        2.15211         104.678         10.3879 
        2.16785         102.996         10.2053 
        2.18349         101.719         10.0283 
        2.19916         100.852         9.85518 
        2.21489         99.5385         9.68553 
        2.23063         97.8297         9.51977 
         2.2463         97.3211         9.35863 
        2.26194         95.8095         9.20164 
        2.27765         94.5939         9.04744 
        2.29341         93.6338         8.89638 
        2.30914         92.5818         8.74908 
        2.32486          90.893         8.60521 
        2.34061         90.4112         8.46433 
        2.35635         88.9488         8.32674 
        2.37203         87.6103         8.19268 
        2.38768         86.7151         8.06186 
        2.40339         86.0932         7.93343 
        2.41914         84.4898         7.80749 
        2.43483         83.6405         7.68474 
         2.4505         82.8139         7.56483 
        2.46622         81.7626         7.44708 
        2.48195         80.8178         7.33182 
        2.49759         79.7078         7.21962 
        2.51328         79.1136         7.10948 
        2.52906          77.444         7.00094 
        2.54479         76.7957         6.89508 
        2.56049          75.775         6.79161 
        2.57618         74.7652         6.69035 
        2.59189         74.3033         6.59101 
        2.60758         73.0785         6.49385 
        2.62325         72.4934         6.39876 
        2.63898          71.584         6.30525 
        2.65468         70.7269          6.2138 
        2.67044         69.8707         6.12378 
        2.68618         69.2169         6.03575 
        2.70184         68.0497          5.9498 
        2.71755         67.3711         5.86531 
        2.73329         66.5179         5.78233 
        2.74897         66.0727         5.70123 
        2.76462         65.3015         5.62187 
        2.78034         64.5042         5.54369 
        2.79607         63.7343         5.46692 
        2.81179         62.9812         5.39169 
        2.82749         62.6039         5.31796 
        2.84321         61.8633         5.24552 
        2.85893         61.2016         5.17446 
        2.87462            60.4         5.10484 
        2.89033         59.7121         5.03643 
        2.90605         59.1865         4.96922 
        2.92176         58.2899         4.90327 
        2.93747         57.6936         4.83855 
        2.95318         57.1868         4.77499 
        2.96891         56.4313         4.71254 
        2.98456         55.8861         4.65148 
        3.00023         55.1575         4.59142 
        3.01596         54.8189         4.53223 
        3.03164         54.1305         4.47426 
        3.04738         53.4836         4.41712 
         3.0631         52.7457         4.36101 
        3.07883         52.3416         4.30587 
        3.09456         51.7373         4.25169 
        3.11026         51.1085         4.19853 
        3.12596         50.7702         4.14628 
        3.14163         49.9703         4.09504 
        3.15734          49.511         4.04455 
        3.17308         49.0517         3.99479 
        3.18879         48.4361           3.946 
        3.20447         48.0053         3.89809 
         3.2202         47.3964         3.85084 
         3.2359         47.0713         3.80445 
        3.25157         46.4666         3.75894 
        3.26729         46.0025         3.71403 
        3.28304         45.6003         3.66977 
        3.29877         44.9541         3.62629 
        3.31446         44.7486         3.58361 
        3.33014         44.2372         3.54165 
        3.34585         43.7564          3.5003 
        3.36158         43.2234         3.45955 
        3.37727         42.8914         3.41957 
        3.39294         42.4932         3.38027 
        3.40867         42.0706         3.34144 
        3.42439         41.4906         3.30324 
        3.44008         41.1247         3.26571 
        3.45578         40.6947         3.22874 
        3.47153         40.3782         3.19226 
        3.48724         39.7737         3.15641 
        3.50292         39.3557         3.12119 
        3.51859         39.1955         3.08652 
        3.53431         38.5429         3.05227 
        3.55007         38.2947         3.01847 
        3.56577         37.8933          2.9853 
        3.58146         37.4849         2.95265 
        3.59719         37.1052         2.92041 
        3.61292         36.7761         2.88866 
        3.62859         36.4828         2.85751 
        3.64429          36.262         2.82675 
        3.66003         35.8019         2.79635 
        3.67578         35.5073         2.76641 
        3.69146         35.1871         2.73703 
        3.70712         34.8224         2.70812 
        3.72284         34.5377         2.67952 
        3.73853         34.1654         2.65139 
        3.75422         33.8368         2.62365 
        3.76993          33.604         2.59628 
        3.78564         33.2165         2.56931 
        3.80137         32.8936         2.54268 
        3.81707         32.5963         2.51649 
        3.83279          32.268         2.49064 
        3.84853         31.9337         2.46512 
        3.86424         31.7337            2.44 
        3.87992         31.4017         2.41527 
        3.89561         31.2292         2.39088 
        3.91134         30.8718         2.36678 
        3.92704         30.5716         2.34303 
        3.94273         30.3355         2.31964 
        3.95845         29.9649         2.29652 
        3.97418          29.702         2.27372 
        3.98988         29.3529         2.25125 
        4.00554         29.0961         2.22915 
        4.02125         28.8705         2.20728 
        4.03698         28.6682         2.18567 
        4.05268         28.4006          2.1644 
        4.06839         28.0808          2.1434 
         4.0841         27.8966         2.12268 
        4.09983         27.5796         2.10221 
        4.11555         27.3348         2.08201 
        4.13124         27.1978         2.06214 
        4.14693         26.9102         2.04251 
        4.16266         26.6007         2.02309 
        4.17839         26.4018         2.00393 
        4.19408         26.1208         1.98506 
        4.20977         25.9342         1.96643 
        4.22551         25.7634         1.94799 
        4.24123         25.4927         1.92981 
        4.25691         25.2659         1.91191 
        4.27259         25.0158         1.89423 
        4.28831         24.8169         1.87674 
        4.30404         24.5672         1.85945 
        4.31974         24.3497         1.84242 
        4.33543         24.1724         1.82561 
        4.35116         23.9942         1.80897 
        4.36688         23.8124         1.79255 
        4.38255         23.5532         1.77639 
        4.39825         23.3654         1.76039 
        4.41398         23.2326         1.74456 
         4.4297         22.9774         1.72894 
        4.44541         22.7396         1.71351 
        4.46111         22.5875         1.69829 
        4.47683          22.369         1.68324 
        4.49251          22.195          1.6684 
        4.50819          22.019         1.65374 
         4.5239         21.7931         1.63924 
        4.53962         21.6424         1.62489 
        4.55535         21.4183         1.61071 
        4.57106         21.2743         1.59672 
        4.58678         21.0789         1.58289 
         4.6025          20.953         1.56923 
        4.61821         20.6831         1.55572 
        4.63391         20.5438         1.54239 
         4.6496         20.4199         1.52923 
        4.66532         20.2025         1.51619 
        4.68103         20.0526         1.50332 
        4.69673         19.9244          1.4906 
        4.71241         19.7706         1.47805 
        4.72811         19.5632         1.46562 
        4.74384          19.428         1.45332 
        4.75955         19.2245         1.44117 
        4.77525          19.108         1.42917 
        4.79096         18.9598          1.4173 
        4.80669         18.8034         1.40555 
         4.8224         18.6627         1.39395 
        4.83809         18.5443         1.38249 
        4.85379         18.3407         1.37116 
         4.8695         18.1504         1.35994 
        4.88521         18.0418         1.34885 
        4.90093         17.9347         1.33789 
        4.91663         17.7607         1.32705 
        4.93234         17.6153         1.31633 
        4.94807         17.4841         1.30571 
        4.96377          17.314         1.29524 
        4.97943         17.1882          1.2849 
        4.99514         17.0719         1.27464 
        5.01086         16.9019         1.26449 
        5.02654          16.844         1.25448 
        5.04227         16.6401         1.24454 
          5.058         16.5523         1.23471 
        5.07371         16.4374           1.225 
        5.08942         16.2375          1.2154 
        5.10513         16.1567          1.2059 
        5.12084         16.0063         1.19649 
        5.13656         15.8996         1.18719 
        5.15225         15.7392           1.178 
        5.16796         15.6671          1.1689 
        5.18369         15.5476         1.15988 
         5.1994         15.4239         1.15097 
        5.21509         15.3154         1.14217 
        5.23079         15.1805         1.13345 
        5.24649         15.0777         1.12482 
        5.26217         14.9445         1.11629 
        5.27788         14.8553         1.10784 
        5.29359         14.7198         1.09947 
        5.30933         14.6223         1.09118 
        5.32504         14.4967         1.08299 
        5.34073         14.3784         1.07488 
        5.35646         14.2998         1.06685 
        5.37218         14.1777          1.0589 
        5.38789         14.0749         1.05104 
        5.40357          13.981         1.04327 
        5.41929          13.888         1.03556 
        5.43502         13.7496         1.02793 
         5.4507         13.6579         1.02039 
        5.46639         13.5575         1.01293 
        5.48212         13.4445         1.00552 
        5.49786         13.3569         0.99818 
        5.51353         13.2608        0.990949 
        5.52921         13.1575        0.983782 
        5.54495         13.0844        0.976666 
        5.56066         12.9798        0.969627 
        5.57637         12.8767        0.962659 
        5.59207          12.772        0.955765 
        5.60778         12.6886        0.948936 
        5.62346         12.5978        0.942184 
        5.63916          12.504         0.93549 
        5.65487         12.4396        0.928859 
         5.6706         12.3209        0.922283 
        5.68633         12.2315        0.915769 
        5.70203         12.1458        0.909331 
        5.71773          12.057        0.902957 
        5.73344         11.9736        0.896639 
        5.74916         11.8999        0.890377 
        5.76486         11.7967        0.884183 
        5.78054         11.7135        0.878057 
        5.79626         11.6407        0.871972 
          5.812         11.5712        0.865939 
         5.8277         11.4714         0.85998 
        5.84339         11.3842        0.854077 
        5.85911         11.2942        0.848218 
        5.87484         11.2287        0.842416 
        5.89053         11.1431        0.836679 
        5.90623          11.074        0.830993 
        5.92195         10.9788         0.82535 
        5.93767         10.9182        0.819762 
        5.95336         10.8548        0.814235 
        5.96905         10.7441        0.808761 
        5.98476         10.6795         0.80333 
        6.00048         10.6002        0.797947 
        6.01617         10.5437         0.79262 
        6.03185         10.4628        0.787349 
        6.04756         10.3765        0.782113 
        6.06331         10.3135        0.776913 
        6.07903         10.2496        0.771771 
        6.09473         10.1734        0.766681 
        6.11044         10.1052        0.761632 
        6.12616         10.0427        0.756629 
        6.14186         9.96373        0.751676 
        6.15755         9.90895        0.746768 
        6.17326         9.82474        0.741899 
        6.18898         9.75912        0.737072 
        6.20467         9.69913        0.732296 
        6.22036         9.64669        0.727563 
         6.2361         9.58074        0.722859 
         6.2518         9.51823        0.718205 
        6.26748         9.45553        0.713601 
        6.28319         9.38516        0.709025 
        6.29893         9.30395        0.704485 
        6.31463         9.25125        0.699993 
        6.33033         9.18588        0.695541 
        6.34604         9.13098        0.691125 
        6.36177         9.07345        0.686743 
        6.37747         9.00629        0.682407 
