# k  (h/Mpc)    Pcb(k)  (Mpc/h)^3    Pcb_linear(k) (Mpc/h)^3   ShotnoiseSubtracted = true
      0.0200456           27831         28324.5 
      0.0350414         22827.8         22209.3 
      0.0492313           16899         17596.6 
      0.0637834         13331.3         14308.8 
      0.0800726         10063.3           10809 
       0.096163          8645.3         8501.94 
       0.111083         7342.95         7196.87 
       0.126058         5870.79         5982.65 
       0.142273         5100.57         4868.31 
       0.158546         4311.99         4147.23 
        0.17375         3959.75         3608.23 
       0.188953         3774.75         3101.98 
       0.204907         3258.15         2685.21 
       0.220756         2980.12          2373.3 
        0.23588         2685.98            2108 
         0.2514         2461.92         1867.86 
       0.267535         2354.39         1665.81 
       0.283568         2140.66         1496.87 
       0.299022         2045.25         1351.72 
       0.314451         2124.87         1225.55 
       0.330372         1947.99         1114.32 
       0.346141         1805.65         1017.25 
       0.361624         1724.41         932.326 
       0.377134         1675.14         857.223 
       0.392932          1585.3         789.546 
       0.408854         1535.15         728.525 
       0.424564         1508.72         674.477 
       0.440253         1434.98         626.098 
       0.455999         1372.15         582.356 
       0.471626         1364.84         543.014 
        0.48727         1314.17         507.261 
       0.502856         1292.21         474.861 
       0.518488         1234.64         445.209 
       0.534347         1197.87         417.702 
       0.550082         1163.73          392.71 
       0.565732         1134.77         369.889 
       0.581496         1103.97         348.736 
       0.597222         1100.31         329.283 
       0.612804         1066.06         311.478 
       0.628434         1030.54         294.947 
       0.644267         1010.33         279.428 
       0.660051         990.487         265.073 
       0.675724          980.08         251.819 
       0.691403         937.473          239.47 
       0.707174         920.667         227.887 
       0.722871         915.506         217.121 
        0.73838         882.833         207.171 
       0.754018         880.259         197.772 
       0.769845         856.177         188.855 
        0.78569         834.999         180.481 
       0.801365         817.578         172.698 
       0.817031         803.758          165.38 
       0.832809         787.199         158.441 
       0.848511         763.068         151.932 
       0.864097          756.61         145.835 
       0.879701         756.471         140.067 
       0.895507         736.787         134.545 
       0.911279         728.967         129.332 
        0.92691         712.958          124.44 
       0.942635         696.707         119.775 
       0.958396         693.447          115.34 
       0.974128         674.631         111.139 
       0.989692         663.722          107.19 
        1.00528         651.382         103.427 
        1.02113         638.592         99.7877 
        1.03692          625.77         96.3374 
        1.05264         619.854         93.0669 
        1.06832         609.827         89.9541 
        1.08405          599.25         86.9761 
        1.09979         588.734         84.1318 
        1.11537         573.533         81.4434 
        1.13105         568.281          78.857 
        1.14679         559.639         76.3734 
        1.16256         551.836         73.9924 
        1.17828         544.789         71.7212 
        1.19395         532.226         69.5533 
         1.2097         519.395         67.4643 
        1.22537         515.306         65.4716 
          1.241         503.421         63.5656 
        1.25666         494.754         61.7311 
        1.27241         492.718         59.9606 
        1.28819         482.463         58.2568 
        1.30392         476.471         56.6243 
        1.31957         466.169         55.0619 
        1.33529         460.812          53.553 
        1.35108         459.447         52.0948 
        1.36674         450.813         50.7015 
         1.3824         440.163         49.3605 
        1.39811         436.494         48.0638 
        1.41389         430.978         46.8089 
        1.42964         421.847          45.601 
        1.44531         418.363         44.4417 
        1.46101         407.323         43.3205 
        1.47667         404.734         42.2413 
        1.49229         401.034         41.2019 
        1.50793         390.418         40.1964 
        1.52367         386.185         39.2181 
        1.53953         379.295         38.2659 
        1.55526         370.766          37.353 
        1.57092         366.909         36.4737 
        1.58662         363.605         35.6208 
        1.60235         357.327         34.7935 
        1.61809         350.765         33.9921 
        1.63369         347.472         33.2232 
        1.64941         341.513         32.4726 
        1.66519         338.404         31.7425 
        1.68085         329.276         31.0402 
        1.69652         326.603         30.3589 
        1.71228         321.473         29.6943 
        1.72806         317.408         29.0491 
        1.74368         314.036         28.4295 
        1.75933         310.029         27.8269 
        1.77505         304.791         27.2389 
        1.79081         301.345         26.6669 
         1.8065         297.785         26.1138 
        1.82218         291.135         25.5769 
        1.83797          289.03         25.0515 
        1.85367         284.099         24.5438 
        1.86928         280.219         24.0532 
        1.88497         276.388         23.5734 
        1.90073         273.386         23.1049 
        1.91647         269.336         22.6495 
        1.93218         265.676         22.2075 
        1.94787         262.053         21.7779 
        1.96363         259.462          21.358 
        1.97935         253.013           20.95 
        1.99499         252.364          20.555 
        2.01064          246.63         20.1697 
         2.0264          243.59         19.7918 
        2.04216         241.109         19.4238 
        2.05781         236.509         19.0675 
        2.07353         234.694         18.7189 
        2.08928         230.769         18.3782 
        2.10499         229.676          18.047 
        2.12065         226.128         17.7249 
        2.13633         222.541         17.4104 
        2.15211         219.051         17.1016 
        2.16785         217.217          16.801 
        2.18349         213.113         16.5097 
        2.19916         212.009         16.2246 
        2.21489         208.686         15.9453 
        2.23063         206.694         15.6724 
         2.2463         203.066         15.4071 
        2.26194         199.929         15.1486 
        2.27765         198.825         14.8948 
        2.29341          196.27         14.6461 
        2.30914         193.322         14.4036 
        2.32486         192.556         14.1667 
        2.34061         188.699         13.9348 
        2.35635         186.399         13.7083 
        2.37203         184.733         13.4876 
        2.38768         182.544         13.2722 
        2.40339          179.29         13.0608 
        2.41914         177.929         12.8535 
        2.43483         175.661         12.6514 
         2.4505         173.311          12.454 
        2.46622         171.583         12.2601 
        2.48195         169.279         12.0704 
        2.49759         167.978         11.8857 
        2.51328         164.781         11.7043 
        2.52906         163.086         11.5256 
        2.54479         161.119         11.3514 
        2.56049         159.374          11.181 
        2.57618         157.676         11.0143 
        2.59189         156.155         10.8508 
        2.60758          154.89         10.6908 
        2.62325         152.145         10.5343 
        2.63898         150.354         10.3803 
        2.65468         148.941         10.2298 
        2.67044         147.904         10.0816 
        2.68618         145.373         9.93664 
        2.70184         144.288         9.79514 
        2.71755         142.331         9.65605 
        2.73329         140.654         9.51945 
        2.74897         138.894         9.38594 
        2.76462         137.343         9.25528 
        2.78034         136.043         9.12657 
        2.79607         134.549         9.00018 
        2.81179         132.585         8.87633 
        2.82749         131.671         8.75495 
        2.84321         130.428          8.6357 
        2.85893         128.945         8.51871 
        2.87462         126.964         8.40409 
        2.89033         126.202         8.29147 
        2.90605         124.332         8.18082 
        2.92176         123.055         8.07225 
        2.93747         121.685         7.96571 
        2.95318         120.757         7.86106 
        2.96891         119.275         7.75825 
        2.98456         118.112         7.65773 
        3.00023         116.867         7.55885 
        3.01596         115.692         7.46141 
        3.03164         114.248         7.36596 
        3.04738         113.281         7.27191 
         3.0631         112.068         7.17953 
        3.07883         110.852         7.08875 
        3.09456         109.727         6.99955 
        3.11026         108.401         6.91203 
        3.12596         107.512         6.82601 
        3.14163         105.692         6.74166 
        3.15734         104.928         6.65853 
        3.17308         103.969         6.57661 
        3.18879         102.587         6.49629 
        3.20447          101.76         6.41743 
         3.2202         100.618         6.33963 
         3.2359         99.9512         6.26326 
        3.25157          99.013         6.18834 
        3.26729         97.6641         6.11441 
        3.28304         96.9234         6.04154 
        3.29877         95.6518         5.96996 
        3.31446         94.7847         5.89969 
        3.33014         94.0655         5.83062 
        3.34585         93.1063         5.76254 
        3.36158         91.9765         5.69545 
        3.37727         90.9641         5.62964 
        3.39294         90.3582         5.56493 
        3.40867         89.2525         5.50101 
        3.42439         88.3072         5.43812 
        3.44008         87.4234         5.37634 
        3.45578         86.6784         5.31547 
        3.47153         85.7425         5.25541 
        3.48724         84.6935         5.19639 
        3.50292         84.1558         5.13841 
        3.51859         83.4234         5.08134 
        3.53431         82.4317         5.02496 
        3.55007         81.5258          4.9693 
        3.56577         80.8234          4.9147 
        3.58146         80.0721         4.86094 
        3.59719         79.2296         4.80786 
        3.61292         78.6578          4.7556 
        3.62859         77.6668         4.70431 
        3.64429         77.3138         4.65367 
        3.66003         76.4426         4.60363 
        3.67578         75.6061         4.55434 
        3.69146         75.0368         4.50596 
        3.70712         74.2465         4.45837 
        3.72284         73.4406         4.41129 
        3.73853         72.9139         4.36497 
        3.75422         72.3525          4.3193 
        3.76993         71.4449         4.27425 
        3.78564         70.5542         4.22985 
        3.80137         70.3291         4.18602 
        3.81707         69.5337         4.14289 
        3.83279         68.8228         4.10034 
        3.84853         68.5215         4.05832 
        3.86424         67.7529         4.01697 
        3.87992         66.9364         3.97625 
        3.89561         66.4979          3.9361 
        3.91134         65.8055         3.89642 
        3.92704         65.3346         3.85733 
        3.94273         64.5114         3.81882 
        3.95845         64.0051         3.78076 
        3.97418         63.4755         3.74322 
        3.98988         63.0882         3.70623 
        4.00554         62.3236         3.66985 
        4.02125         61.7174         3.63384 
        4.03698         61.2717         3.59827 
        4.05268          60.715         3.56325 
        4.06839         60.0586         3.52868 
         4.0841         59.7982         3.49457 
        4.09983         59.1868         3.46086 
        4.11555         58.6057         3.42762 
        4.13124         58.1842          3.3949 
        4.14693         57.4917         3.36258 
        4.16266         57.0908          3.3306 
        4.17839         56.6121         3.29906 
        4.19408         56.0676           3.268 
        4.20977         55.5873         3.23733 
        4.22551         55.1403         3.20698 
        4.24123         54.7412         3.17705 
        4.25691         54.1531         3.14758 
        4.27259         53.7348         3.11847 
        4.28831         53.2715         3.08968 
        4.30404         52.8635         3.06122 
        4.31974         52.4496         3.03318 
        4.33543         51.9324         3.00551 
        4.35116         51.5774         2.97811 
        4.36688         50.9787         2.95107 
        4.38255         50.6743         2.92447 
        4.39825         50.2043         2.89813 
        4.41398         49.7466         2.87207 
         4.4297         49.3974         2.84635 
        4.44541         48.8499         2.82096 
        4.46111          48.453         2.79589 
        4.47683         48.1717         2.77111 
        4.49251         47.7318         2.74668 
        4.50819         47.3432         2.72255 
         4.5239         46.9067         2.69868 
        4.53962         46.5456         2.67506 
        4.55535         46.1742         2.65171 
        4.57106          45.914         2.62868 
        4.58678         45.4119         2.60591 
         4.6025         45.0039         2.58341 
        4.61821         44.6594         2.56118 
        4.63391         44.3418         2.53924 
         4.6496         44.0093         2.51756 
        4.66532         43.5812         2.49611 
        4.68103         43.2876         2.47491 
        4.69673         42.9383         2.45398 
        4.71241         42.5335         2.43331 
        4.72811         42.1463         2.41285 
        4.74384         41.8656         2.39259 
        4.75955         41.5803          2.3726 
        4.77525         41.1234         2.35285 
        4.79096         40.7954          2.3333 
        4.80669         40.4955         2.31396 
         4.8224         40.3064         2.29486 
        4.83809         39.8849           2.276 
        4.85379         39.6565         2.25734 
         4.8695         39.2959         2.23887 
        4.88521         38.9344         2.22062 
        4.90093         38.5929         2.20256 
        4.91663         38.3967         2.18473 
        4.93234          38.041         2.16707 
        4.94807         37.7017         2.14959 
        4.96377         37.3639         2.13235 
        4.97943         37.0988         2.11532 
        4.99514         36.8563         2.09844 
        5.01086         36.5786         2.08173 
        5.02654           36.25         2.06525 
        5.04227         35.9976         2.04889 
          5.058         35.7084          2.0327 
        5.07371         35.4035         2.01672 
        5.08942         35.1283         2.00091 
        5.10513         34.8617         1.98527 
        5.12084         34.6135         1.96979 
        5.13656         34.3914         1.95447 
        5.15225         34.1073         1.93935 
        5.16796         33.8289         1.92436 
        5.18369         33.5636         1.90951 
         5.1994         33.3199         1.89485 
        5.21509         32.9929         1.88035 
        5.23079         32.7757         1.86599 
        5.24649         32.4901         1.85179 
        5.26217         32.3322         1.83775 
        5.27788         31.9996         1.82383 
        5.29359         31.7743         1.81006 
        5.30933         31.5215         1.79641 
        5.32504         31.3363         1.78292 
        5.34073         31.1068         1.76958 
        5.35646          30.864         1.75636 
        5.37218         30.6598         1.74326 
        5.38789         30.4492         1.73032 
        5.40357         30.1987         1.71753 
        5.41929         29.9822         1.70484 
        5.43502         29.7409         1.69227 
         5.4507          29.531         1.67986 
        5.46639         29.2739         1.66758 
        5.48212           29.07         1.65539 
        5.49786         28.8898          1.6433 
        5.51353         28.6108          1.6314 
        5.52921         28.4738          1.6196 
        5.54495         28.2382         1.60788 
        5.56066         28.0816          1.5963 
        5.57637          27.804         1.58482 
        5.59207         27.6321         1.57348 
        5.60778          27.419         1.56223 
        5.62346         27.2653         1.55112 
        5.63916         27.0538          1.5401 
        5.65487         26.8303         1.52918 
         5.6706         26.6636         1.51835 
        5.68633         26.4766         1.50763 
        5.70203         26.2177         1.49703 
        5.71773          26.111         1.48654 
        5.73344         25.8985         1.47614 
        5.74916         25.7241         1.46583 
        5.76486         25.5485         1.45563 
        5.78054         25.3208         1.44554 
        5.79626          25.156         1.43553 
          5.812         24.9603         1.42559 
         5.8277         24.8141         1.41578 
        5.84339         24.5553         1.40607 
        5.85911         24.4122         1.39642 
        5.87484         24.3111         1.38687 
        5.89053         24.1413         1.37742 
        5.90623         23.9468         1.36806 
        5.92195         23.7996         1.35877 
        5.93767          23.568         1.34957 
        5.95336          23.454         1.34047 
        5.96905         23.2881         1.33146 
        5.98476         23.0706         1.32252 
        6.00048         22.9526         1.31366 
        6.01617         22.7941         1.30489 
        6.03185         22.6412         1.29621 
        6.04756         22.4758         1.28759 
        6.06331         22.3193         1.27903 
        6.07903         22.1349         1.27057 
        6.09473         22.0012         1.26219 
        6.11044         21.8475         1.25387 
        6.12616         21.7309         1.24564 
        6.14186         21.5988         1.23748 
        6.15755         21.3794          1.2294 
        6.17326         21.2949         1.22139 
        6.18898         21.1097         1.21344 
        6.20467          20.966         1.20558 
        6.22036         20.7888         1.19779 
         6.2361         20.6736         1.19004 
         6.2518         20.5244         1.18238 
        6.26748         20.3706          1.1748 
        6.28319         20.2409         1.16727 
        6.29893         20.1238         1.15979 
        6.31463         20.0147          1.1524 
        6.33033         19.8482         1.14507 
        6.34604         19.6908          1.1378 
        6.36177         19.6087         1.13058 
        6.37747         19.4479         1.12345 
