# k  (h/Mpc)    Pcb(k)  (Mpc/h)^3    Pcb_linear(k) (Mpc/h)^3   ShotnoiseSubtracted = true
      0.0200456         23773.1         24167.1 
      0.0350414         19462.2         18949.5 
      0.0492313         14500.6         15013.8 
      0.0637834         11445.2         12208.6 
      0.0800726         8641.93         9222.45 
       0.096163         7383.46         7254.05 
       0.111083         6285.74         6140.54 
       0.126058         5009.88         5104.54 
       0.142273         4327.43         4153.75 
       0.158546         3672.67         3538.51 
        0.17375         3348.67         3078.63 
       0.188953         3156.78         2646.68 
       0.204907         2721.38         2291.08 
       0.220756         2480.55         2024.95 
        0.23588         2234.21          1798.6 
         0.2514         2037.23          1593.7 
       0.267535         1953.59         1421.31 
       0.283568         1762.79         1277.17 
       0.299022         1685.87         1153.32 
       0.314451         1754.26         1045.67 
       0.330372          1583.6         950.765 
       0.346141         1459.09         867.938 
       0.361624         1399.28         795.482 
       0.377134         1348.41         731.403 
       0.392932         1285.27         673.659 
       0.408854         1236.22         621.595 
       0.424564         1215.05         575.479 
       0.440253         1141.99         534.202 
       0.455999          1093.8          496.88 
       0.471626         1099.92         463.312 
        0.48727         1049.47         432.807 
       0.502856         1019.64         405.163 
       0.518488         982.974         379.863 
       0.534347         949.749         356.393 
       0.550082         913.115         335.069 
       0.565732         894.853         315.597 
       0.581496          872.89          297.55 
       0.597222         863.159         280.952 
       0.612804         841.749         265.761 
       0.628434         808.972         251.656 
       0.644267          788.95         238.414 
       0.660051         778.797         226.166 
       0.675724         767.089         214.858 
       0.691403         737.356         204.321 
       0.707174         720.821         194.438 
       0.722871         713.206         185.253 
        0.73838         695.749         176.763 
       0.754018         685.211         168.743 
       0.769845         671.966         161.135 
        0.78569         655.631          153.99 
       0.801365         637.276          147.35 
       0.817031         628.987         141.106 
       0.832809         617.509         135.186 
       0.848511          604.65         129.632 
       0.864097         598.311          124.43 
       0.879701         599.558         119.509 
       0.895507          576.41         114.797 
       0.911279         572.315         110.349 
        0.92691         559.502         106.175 
       0.942635         551.825         102.195 
       0.958396         540.855          98.411 
       0.974128         530.873         94.8265 
       0.989692         518.554         91.4568 
        1.00528         512.594         88.2467 
        1.02113         501.934         85.1412 
        1.03692         494.485         82.1973 
        1.05264         487.872         79.4069 
        1.06832         477.823         76.7509 
        1.08405         473.663           74.21 
        1.09979         463.016         71.7832 
        1.11537         453.142         69.4894 
        1.13105         447.955         67.2826 
        1.14679         439.782         65.1636 
        1.16256         435.847          63.132 
        1.17828         428.841         61.1942 
        1.19395         419.826         59.3445 
         1.2097         413.219         57.5621 
        1.22537         406.992         55.8619 
          1.241         399.947         54.2357 
        1.25666         394.423         52.6704 
        1.27241         390.516         51.1597 
        1.28819          381.56          49.706 
        1.30392         378.714         48.3132 
        1.31957         371.081         46.9801 
        1.33529         366.551         45.6926 
        1.35108          365.54         44.4485 
        1.36674         355.837         43.2597 
         1.3824          348.43         42.1155 
        1.39811         345.723         41.0092 
        1.41389         340.705         39.9384 
        1.42964         334.731         38.9078 
        1.44531         328.304         37.9187 
        1.46101          321.09          36.962 
        1.47667         320.464         36.0413 
        1.49229         316.294         35.1544 
        1.50793          309.48         34.2965 
        1.52367         303.549         33.4618 
        1.53953         300.229         32.6494 
        1.55526         295.198         31.8705 
        1.57092         290.661         31.1202 
        1.58662          286.45         30.3925 
        1.60235         282.465         29.6866 
        1.61809         279.366         29.0029 
        1.63369         274.503         28.3468 
        1.64941         271.352         27.7064 
        1.66519         266.975         27.0835 
        1.68085         262.014         26.4842 
        1.69652         258.729         25.9029 
        1.71228         254.785         25.3358 
        1.72806          251.47         24.7853 
        1.74368          248.25         24.2567 
        1.75933         245.526         23.7425 
        1.77505         240.973         23.2409 
        1.79081         238.061         22.7528 
         1.8065         236.056         22.2809 
        1.82218         230.369         21.8228 
        1.83797         228.281         21.3745 
        1.85367         224.115         20.9413 
        1.86928         220.395         20.5227 
        1.88497         218.074         20.1133 
        1.90073         216.078         19.7136 
        1.91647         212.714         19.3251 
        1.93218         209.238         18.9479 
        1.94787          205.03         18.5814 
        1.96363         204.069         18.2231 
        1.97935         200.593          17.875 
        1.99499         198.233          17.538 
        2.01064         193.912         17.2093 
         2.0264         193.036         16.8868 
        2.04216         189.399         16.5729 
        2.05781         187.721         16.2689 
        2.07353         186.263         15.9714 
        2.08928         183.847         15.6807 
        2.10499         180.536         15.3981 
        2.12065         178.323         15.1233 
        2.13633          175.58          14.855 
        2.15211         173.718         14.5914 
        2.16785         171.384          14.335 
        2.18349         169.234         14.0864 
        2.19916          167.53         13.8432 
        2.21489         164.888         13.6049 
        2.23063         163.255          13.372 
         2.2463          161.27         13.1457 
        2.26194         158.372         12.9252 
        2.27765         156.676         12.7086 
        2.29341         154.664         12.4964 
        2.30914         152.564         12.2895 
        2.32486         151.002         12.0874 
        2.34061         148.364         11.8895 
        2.35635         146.414         11.6962 
        2.37203         145.498         11.5079 
        2.38768         143.572         11.3242 
        2.40339         141.444         11.1438 
        2.41914         139.479         10.9669 
        2.43483         138.375         10.7944 
         2.4505         136.429          10.626 
        2.46622         134.325         10.4606 
        2.48195         133.348         10.2987 
        2.49759         130.879         10.1411 
        2.51328         129.611         9.98641 
        2.52906         128.317         9.83395 
        2.54479         126.418         9.68524 
        2.56049         125.176          9.5399 
        2.57618         123.754         9.39768 
        2.59189          122.59         9.25814 
        2.60758         121.306         9.12165 
        2.62325         119.193         8.98808 
        2.63898         117.378         8.85673 
        2.65468         116.322         8.72828 
        2.67044         115.318         8.60182 
        2.68618         113.477         8.47817 
        2.70184         112.639         8.35744 
        2.71755         110.704         8.23877 
        2.73329         109.529         8.12221 
        2.74897         108.303          8.0083 
        2.76462         107.238         7.89682 
        2.78034         105.953           7.787 
        2.79607         104.877         7.67916 
        2.81179         103.617         7.57349 
        2.82749         102.494         7.46992 
        2.84321         101.139         7.36818 
        2.85893         100.025         7.26836 
        2.87462         98.6024         7.17056 
        2.89033         97.8063         7.07448 
        2.90605         96.6251         6.98007 
        2.92176         95.1894         6.88743 
        2.93747          94.563         6.79652 
        2.95318         93.4655         6.70724 
        2.96891         92.5624         6.61952 
        2.98456         91.1755         6.53375 
        3.00023         90.3607         6.44939 
        3.01596          89.551         6.36625 
        3.03164         88.6182         6.28481 
        3.04738         87.7404         6.20456 
         3.0631         86.6519         6.12574 
        3.07883         85.7327         6.04828 
        3.09456         84.7143         5.97218 
        3.11026         84.0403          5.8975 
        3.12596          82.651         5.82411 
        3.14163         82.1457         5.75214 
        3.15734         80.9973         5.68122 
        3.17308         80.0621         5.61132 
        3.18879         79.6615         5.54279 
        3.20447         78.6054          5.4755 
         3.2202         77.5177         5.40912 
         3.2359          77.184         5.34396 
        3.25157         76.5761         5.28003 
        3.26729         75.2041         5.21695 
        3.28304         74.8236         5.15478 
        3.29877         73.9145         5.09371 
        3.31446         73.3309         5.03375 
        3.33014         72.5781         4.97482 
        3.34585         71.7403         4.91673 
        3.36158         71.0012         4.85949 
        3.37727         70.1794         4.80334 
        3.39294         69.5263         4.74813 
        3.40867         68.5816         4.69359 
        3.42439         67.8606         4.63993 
        3.44008         67.3572         4.58722 
        3.45578         67.0324         4.53528 
        3.47153         66.0096         4.48404 
        3.48724          65.377         4.43368 
        3.50292         64.9612         4.38421 
        3.51859         64.1686         4.33551 
        3.53431         63.5168         4.28741 
        3.55007         62.8944         4.23992 
        3.56577         62.4098         4.19333 
        3.58146         61.5861         4.14747 
        3.59719         61.1413         4.10218 
        3.61292          60.538         4.05759 
        3.62859         59.8886         4.01382 
        3.64429         59.5049         3.97062 
        3.66003         58.6436         3.92793 
        3.67578         58.1018         3.88587 
        3.69146         57.5825         3.84459 
        3.70712         56.9044         3.80399 
        3.72284         56.5804         3.76382 
        3.73853         55.8986          3.7243 
        3.75422         55.6103         3.68533 
        3.76993         54.9041         3.64689 
        3.78564         54.4059         3.60901 
        3.80137         53.8091         3.57161 
        3.81707         53.3317         3.53481 
        3.83279         52.9793          3.4985 
        3.84853         52.4311         3.46265 
        3.86424         51.9886         3.42737 
        3.87992          51.376         3.39263 
        3.89561         50.9997         3.35837 
        3.91134          50.449         3.32452 
        3.92704         50.0619         3.29117 
        3.94273         49.5556         3.25831 
        3.95845         49.1611         3.22583 
        3.97418         48.6521          3.1938 
        3.98988         48.3616         3.16224 
        4.00554         47.6412          3.1312 
        4.02125         47.2441         3.10048 
        4.03698         46.9036         3.07013 
        4.05268         46.4077         3.04025 
        4.06839         46.0523         3.01075 
         4.0841         45.7273         2.98165 
        4.09983           45.23         2.95289 
        4.11555         44.8658         2.92452 
        4.13124          44.457          2.8966 
        4.14693         44.2764         2.86903 
        4.16266         43.7236         2.84175 
        4.17839         43.2183         2.81484 
        4.19408         42.8922         2.78834 
        4.20977          42.489         2.76217 
        4.22551         42.0817         2.73627 
        4.24123         41.8037         2.71073 
        4.25691         41.2596         2.68559 
        4.27259         41.1389         2.66075 
        4.28831         40.6957         2.63618 
        4.30404         40.3872          2.6119 
        4.31974         39.9959         2.58798 
        4.33543         39.5749         2.56437 
        4.35116            39.3         2.54099 
        4.36688         39.0257         2.51792 
        4.38255         38.7164         2.49522 
        4.39825         38.2964         2.47275 
        4.41398         38.1035         2.45051 
         4.4297         37.6246         2.42857 
        4.44541         37.3941         2.40691 
        4.46111         36.9975         2.38552 
        4.47683         36.8312         2.36438 
        4.49251         36.4912         2.34353 
        4.50819         36.1342         2.32294 
         4.5239          35.825         2.30257 
        4.53962         35.4636         2.28242 
        4.55535         35.1774          2.2625 
        4.57106         34.9531         2.24285 
        4.58678         34.5718         2.22343 
         4.6025         34.3317         2.20423 
        4.61821         34.0823         2.18526 
        4.63391         33.7346         2.16654 
         4.6496         33.4966         2.14804 
        4.66532         33.2336         2.12974 
        4.68103         32.9687         2.11165 
        4.69673         32.5622         2.09379 
        4.71241         32.5007         2.07616 
        4.72811           32.24          2.0587 
        4.74384         31.8905         2.04142 
        4.75955          31.599         2.02436 
        4.77525         31.3715          2.0075 
        4.79096         31.1533         1.99082 
        4.80669         30.8792         1.97432 
         4.8224         30.6141         1.95803 
        4.83809         30.4002         1.94193 
        4.85379         30.0863         1.92601 
         4.8695         29.8731         1.91025 
        4.88521         29.6422         1.89468 
        4.90093         29.3909         1.87928 
        4.91663         29.2043         1.86406 
        4.93234         29.0153         1.84899 
        4.94807         28.7319         1.83408 
        4.96377         28.5142         1.81937 
        4.97943         28.2946         1.80484 
        4.99514         28.0322         1.79044 
        5.01086         27.8409         1.77618 
        5.02654          27.629         1.76212 
        5.04227         27.3582         1.74816 
          5.058         27.2463         1.73435 
        5.07371         26.9794         1.72072 
        5.08942         26.7896         1.70723 
        5.10513         26.5457         1.69388 
        5.12084         26.3865         1.68067 
        5.13656         26.1562          1.6676 
        5.15225         25.9453         1.65469 
        5.16796         25.7536          1.6419 
        5.18369         25.5118         1.62924 
         5.1994         25.3783         1.61673 
        5.21509         25.1255         1.60436 
        5.23079         24.9705         1.59211 
        5.24649         24.7259         1.57999 
        5.26217         24.5993         1.56801 
        5.27788         24.3945         1.55614 
        5.29359         24.1871         1.54438 
        5.30933         23.9967         1.53274 
        5.32504         23.9228         1.52123 
        5.34073         23.6781         1.50985 
        5.35646         23.5034         1.49856 
        5.37218         23.3474         1.48739 
        5.38789         23.1415         1.47635 
        5.40357         22.9462         1.46544 
        5.41929         22.8286         1.45461 
        5.43502         22.6249         1.44389 
         5.4507         22.4513          1.4333 
        5.46639         22.2829         1.42282 
        5.48212         22.1504         1.41241 
        5.49786         21.9667          1.4021 
        5.51353         21.7675         1.39195 
        5.52921         21.6062         1.38188 
        5.54495         21.4363         1.37188 
        5.56066          21.389           1.362 
        5.57637         21.1501         1.35221 
        5.59207          21.083         1.34253 
        5.60778         20.8428         1.33293 
        5.62346         20.7004         1.32345 
        5.63916         20.5065         1.31405 
        5.65487         20.4141         1.30473 
         5.6706          20.207         1.29549 
        5.68633         20.1261         1.28634 
        5.70203         19.9485          1.2773 
        5.71773         19.7965         1.26835 
        5.73344         19.6773         1.25947 
        5.74916         19.5387         1.25068 
        5.76486         19.4049         1.24198 
        5.78054         19.2181         1.23337 
        5.79626         19.1037         1.22482 
          5.812         18.9779         1.21635 
         5.8277         18.8162         1.20798 
        5.84339         18.6723         1.19969 
        5.85911         18.5457         1.19146 
        5.87484         18.4393         1.18331 
        5.89053         18.2571         1.17525 
        5.90623         18.1726         1.16726 
        5.92195         18.0329         1.15934 
        5.93767         17.8775         1.15149 
        5.95336           17.79         1.14372 
        5.96905         17.6422         1.13603 
        5.98476         17.5307         1.12841 
        6.00048         17.4359         1.12084 
        6.01617         17.2415         1.11336 
        6.03185          17.166         1.10596 
        6.04756         17.0583          1.0986 
        6.06331         16.9265          1.0913 
        6.07903         16.8031         1.08408 
        6.09473          16.701         1.07693 
        6.11044         16.5797         1.06983 
        6.12616         16.4793         1.06281 
        6.14186         16.3474         1.05585 
        6.15755         16.2802         1.04895 
        6.17326         16.1603         1.04212 
        6.18898         16.0305         1.03534 
        6.20467         15.9347         1.02863 
        6.22036          15.775         1.02198 
         6.2361         15.7001         1.01537 
         6.2518         15.6089         1.00883 
        6.26748         15.4811         1.00237 
        6.28319         15.3682        0.995939 
        6.29893         15.2468        0.989563 
        6.31463         15.1535        0.983252 
        6.33033         15.0489        0.976999 
        6.34604         14.9729        0.970796 
        6.36177         14.8607        0.964641 
        6.37747         14.7757         0.95855 
