# k  (h/Mpc)    Pcb(k)  (Mpc/h)^3    Pcb_linear(k) (Mpc/h)^3   ShotnoiseSubtracted = true
      0.0200456         25377.7         26028.6 
      0.0350414         19280.2         20409.1 
      0.0492313         15578.3         16170.3 
      0.0637834         13281.6           13149 
      0.0800726         10084.7         9932.82 
       0.096163         7384.72          7812.8 
       0.111083          6212.6         6613.52 
       0.126058         5514.64         5497.72 
       0.142273          4677.6          4473.7 
       0.158546         4333.64         3811.07 
        0.17375          3528.3         3315.76 
       0.188953         3416.73         2850.54 
       0.204907         3201.85         2467.55 
       0.220756         2823.94         2180.92 
        0.23588         2550.88         1937.13 
         0.2514         2241.15         1716.45 
       0.267535         2253.29         1530.79 
       0.283568         2047.38         1375.54 
       0.299022         1954.52         1242.15 
       0.314451         1861.82         1126.21 
       0.330372         1702.86            1024 
       0.346141         1685.52         934.792 
       0.361624         1618.15         856.755 
       0.377134         1516.17          787.74 
       0.392932         1456.74         725.549 
       0.408854         1431.03         669.474 
       0.424564         1321.67         619.806 
       0.440253         1294.94         575.349 
       0.455999         1281.72         535.152 
       0.471626         1229.42         498.999 
        0.48727         1187.83         466.144 
       0.502856         1139.89         436.371 
       0.518488         1146.57         409.122 
       0.534347         1072.68         383.844 
       0.550082         1062.59         360.879 
       0.565732         1045.99         339.907 
       0.581496          1000.3         320.469 
       0.597222         975.176         302.593 
       0.612804         963.155         286.231 
       0.628434         939.403          271.04 
       0.644267           915.1         256.779 
       0.660051          896.34         243.587 
       0.675724         889.323         231.407 
       0.691403         863.619         220.059 
       0.707174         835.105         209.415 
       0.722871         815.714         199.522 
        0.73838          802.97         190.378 
       0.754018         791.867         181.741 
       0.769845         777.288         173.547 
        0.78569         766.858         165.852 
       0.801365          745.42           158.7 
       0.817031          733.78         151.975 
       0.832809         722.449         145.599 
       0.848511         706.564         139.617 
       0.864097         685.166         134.014 
       0.879701         675.003         128.714 
       0.895507         673.801         123.639 
       0.911279          661.64         118.849 
        0.92691         649.553         114.353 
       0.942635         630.284         110.066 
       0.958396         619.308         105.991 
       0.974128         613.166         102.131 
       0.989692         604.734         98.5014 
        1.00528         584.023          95.044 
        1.02113         584.709         91.6992 
        1.03692         570.106         88.5286 
        1.05264         560.874         85.5232 
        1.06832         549.476         82.6628 
        1.08405         542.187         79.9261 
        1.09979         534.319         77.3124 
        1.11537         525.853         74.8419 
        1.13105          518.81         72.4651 
        1.14679         506.766         70.1829 
        1.16256         496.115         67.9948 
        1.17828         494.247         65.9077 
        1.19395         484.437         63.9155 
         1.2097         471.051         61.9959 
        1.22537         465.677         60.1647 
          1.241         456.913         58.4132 
        1.25666         452.649         56.7274 
        1.27241          443.78         55.1004 
        1.28819         432.687         53.5347 
        1.30392         429.118         52.0346 
        1.31957         420.381         50.5988 
        1.33529         417.557         49.2122 
        1.35108         407.922         47.8721 
        1.36674         401.484         46.5918 
         1.3824         397.151         45.3595 
        1.39811         388.394         44.1679 
        1.41389         384.597         43.0147 
        1.42964         380.246         41.9047 
        1.44531         376.519         40.8394 
        1.46101         366.662          39.809 
        1.47667         360.174         38.8174 
        1.49229         357.825         37.8622 
        1.50793         346.686         36.9383 
        1.52367          346.99         36.0393 
        1.53953         337.303         35.1642 
        1.55526         336.304         34.3253 
        1.57092         333.243         33.5173 
        1.58662         326.264         32.7335 
        1.60235          320.54         31.9732 
        1.61809         316.058         31.2368 
        1.63369          311.21         30.5302 
        1.64941         304.691         29.8405 
        1.66519         302.512         29.1696 
        1.68085         299.359         28.5242 
        1.69652         294.853         27.8981 
        1.71228         287.141         27.2874 
        1.72806         283.726         26.6944 
        1.74368         279.013         26.1251 
        1.75933         276.841         25.5713 
        1.77505         272.308          25.031 
        1.79081         269.398         24.5054 
         1.8065         263.833         23.9971 
        1.82218         260.876         23.5038 
        1.83797         259.009         23.0209 
        1.85367         254.343         22.5543 
        1.86928         249.188         22.1035 
        1.88497         247.675         21.6626 
        1.90073         243.179         21.2321 
        1.91647         240.432         20.8137 
        1.93218          236.67         20.4074 
        1.94787         233.396         20.0127 
        1.96363         230.184         19.6268 
        1.97935         226.294         19.2519 
        1.99499         223.824         18.8889 
        2.01064         220.406         18.5348 
         2.0264          218.39         18.1876 
        2.04216         216.293         17.8494 
        2.05781         212.678          17.522 
        2.07353         209.177         17.2016 
        2.08928          205.29         16.8886 
        2.10499         203.463         16.5842 
        2.12065           201.1         16.2882 
        2.13633         198.592         15.9992 
        2.15211         195.592         15.7154 
        2.16785         193.873         15.4392 
        2.18349           191.3         15.1714 
        2.19916         188.051         14.9095 
        2.21489         186.336         14.6528 
        2.23063         183.611          14.402 
         2.2463         180.281         14.1583 
        2.26194         178.652         13.9207 
        2.27765         175.428         13.6875 
        2.29341         173.508         13.4589 
        2.30914         171.122         13.2361 
        2.32486         170.315         13.0184 
        2.34061         166.566         12.8053 
        2.35635         165.699         12.5972 
        2.37203         163.369         12.3943 
        2.38768         160.633         12.1964 
        2.40339         159.036         12.0021 
        2.41914         157.508         11.8116 
        2.43483         155.349         11.6259 
         2.4505         153.742         11.4445 
        2.46622         151.692         11.2664 
        2.48195         149.702          11.092 
        2.49759         148.662         10.9222 
        2.51328         146.859         10.7556 
        2.52906         144.809         10.5914 
        2.54479         143.162         10.4313 
        2.56049          141.07         10.2747 
        2.57618         140.107         10.1215 
        2.59189         137.892         9.97125 
        2.60758         135.936         9.82426 
        2.62325         134.623          9.6804 
        2.63898         133.168         9.53893 
        2.65468         131.756         9.40058 
        2.67044         130.096         9.26439 
        2.68618         128.908         9.13121 
        2.70184          126.95         9.00118 
        2.71755         125.818         8.87337 
        2.73329         123.855         8.74784 
        2.74897         122.831         8.62514 
        2.76462         121.426         8.50508 
        2.78034         120.256         8.38681 
        2.79607         118.567         8.27066 
        2.81179         117.933         8.15684 
        2.82749         116.394          8.0453 
        2.84321         114.191         7.93572 
        2.85893         113.168         7.82821 
        2.87462         112.026         7.72288 
        2.89033          110.57         7.61939 
        2.90605         109.705         7.51771 
        2.92176         108.065         7.41794 
        2.93747          106.85         7.32003 
        2.95318         106.325         7.22387 
        2.96891          104.75         7.12939 
        2.98456         103.749         7.03702 
        3.00023         102.918         6.94616 
        3.01596         101.435         6.85661 
        3.03164         100.435          6.7689 
        3.04738         99.6305         6.68247 
         3.0631         98.2615         6.59758 
        3.07883         96.9613         6.51416 
        3.09456         95.8513         6.43219 
        3.11026         95.6596         6.35176 
        3.12596          94.229         6.27272 
        3.14163         93.0506          6.1952 
        3.15734         92.1928         6.11882 
        3.17308         91.4231         6.04353 
        3.18879         90.0028         5.96972 
        3.20447           89.23         5.89725 
         3.2202         88.2968         5.82576 
         3.2359          87.488         5.75559 
        3.25157         86.5765         5.68673 
        3.26729          85.555         5.61879 
        3.28304         84.8936         5.55183 
        3.29877          84.009         5.48605 
        3.31446         83.0751         5.42148 
        3.33014          82.321         5.35801 
        3.34585          81.587         5.29545 
        3.36158         80.5677          5.2338 
        3.37727         79.6123         5.17332 
        3.39294         78.9095         5.11386 
        3.40867          78.082         5.05511 
        3.42439         77.1712         4.99732 
        3.44008         76.2865         4.94055 
        3.45578         75.6493         4.88462 
        3.47153         75.1321         4.82943 
        3.48724          74.326         4.77519 
        3.50292          73.693          4.7219 
        3.51859          73.018         4.66946 
        3.53431          72.347         4.61765 
        3.55007          71.496          4.5665 
        3.56577         70.6037         4.51633 
        3.58146         70.1826         4.46693 
        3.59719         69.4511         4.41816 
        3.61292         68.7962         4.37013 
        3.62859         68.0395         4.32299 
        3.64429         67.2621         4.27646 
        3.66003         66.7471         4.23048 
        3.67578         65.9591         4.18518 
        3.69146         65.5996         4.14072 
        3.70712         64.8291         4.09699 
        3.72284          64.273         4.05373 
        3.73853         63.6852         4.01117 
        3.75422         62.9331          3.9692 
        3.76993         62.6749         3.92779 
        3.78564         61.7146           3.887 
        3.80137         61.2646         3.84671 
        3.81707         60.7432         3.80708 
        3.83279          60.017         3.76798 
        3.84853           59.63         3.72936 
        3.86424         59.0608         3.69136 
        3.87992          58.497         3.65395 
        3.89561          57.941         3.61705 
        3.91134         57.2534         3.58059 
        3.92704         57.0559         3.54467 
        3.94273         56.4047         3.50928 
        3.95845         55.8891         3.47431 
        3.97418         55.3715          3.4398 
        3.98988         54.8716         3.40582 
        4.00554         54.4349         3.37238 
        4.02125         53.9037          3.3393 
        4.03698         53.3783         3.30661 
        4.05268         52.8742         3.27443 
        4.06839         52.4492         3.24265 
         4.0841          51.977         3.21131 
        4.09983         51.4943         3.18034 
        4.11555         50.9966         3.14979 
        4.13124         50.4914         3.11972 
        4.14693         50.1799         3.09002 
        4.16266          49.722         3.06064 
        4.17839         49.3426         3.03165 
        4.19408         48.8631         3.00311 
        4.20977         48.4423         2.97492 
        4.22551         47.9795         2.94703 
        4.24123          47.529         2.91953 
        4.25691         47.2022         2.89245 
        4.27259         46.6165          2.8657 
        4.28831         46.2947         2.83924 
        4.30404         45.8718         2.81309 
        4.31974         45.4387         2.78732 
        4.33543         45.1504         2.76189 
        4.35116         44.6344         2.73672 
        4.36688         44.2922         2.71187 
        4.38255          43.956         2.68742 
        4.39825         43.5871         2.66322 
        4.41398          43.241         2.63927 
         4.4297          42.847         2.61564 
        4.44541         42.4819          2.5923 
        4.46111         42.0772         2.56927 
        4.47683         41.6694         2.54649 
        4.49251         41.4275         2.52404 
        4.50819         41.0656         2.50187 
         4.5239         40.7268         2.47993 
        4.53962         40.2476         2.45823 
        4.55535         40.0279         2.43678 
        4.57106         39.7986         2.41561 
        4.58678         39.2705         2.39469 
         4.6025         39.0012         2.37401 
        4.61821         38.6829         2.35358 
        4.63391         38.3872         2.33342 
         4.6496         37.9476          2.3135 
        4.66532         37.6763         2.29378 
        4.68103         37.3715          2.2743 
        4.69673         37.1443         2.25507 
        4.71241         36.7518         2.23608 
        4.72811         36.6133         2.21727 
        4.74384         36.2157         2.19866 
        4.75955         35.8797         2.18029 
        4.77525         35.5571         2.16214 
        4.79096         35.2492         2.14417 
        4.80669         35.0243          2.1264 
         4.8224         34.8185         2.10885 
        4.83809         34.3974         2.09151 
        4.85379         34.1469         2.07436 
         4.8695         33.8998         2.05739 
        4.88521         33.6547         2.04062 
        4.90093         33.3061         2.02403 
        4.91663          33.066         2.00764 
        4.93234         32.8504         1.99141 
        4.94807         32.5282         1.97536 
        4.96377         32.3307         1.95951 
        4.97943         31.9951         1.94386 
        4.99514         31.8675         1.92835 
        5.01086         31.5402         1.91299 
        5.02654         31.3568         1.89784 
        5.04227         31.0396         1.88281 
          5.058         30.8242         1.86794 
        5.07371         30.5699         1.85326 
        5.08942          30.366         1.83873 
        5.10513         30.1632         1.82435 
        5.12084          29.903         1.81012 
        5.13656         29.6762         1.79605 
        5.15225         29.4201         1.78215 
        5.16796         29.1859         1.76837 
        5.18369         28.9975         1.75473 
         5.1994         28.8235         1.74126 
        5.21509         28.5975         1.72794 
        5.23079         28.3233         1.71474 
        5.24649         28.0777         1.70169 
        5.26217         27.8961         1.68879 
        5.27788         27.6537           1.676 
        5.29359         27.4495         1.66334 
        5.30933         27.2796          1.6508 
        5.32504         27.0318          1.6384 
        5.34073         26.8206         1.62615 
        5.35646         26.6234         1.61399 
        5.37218         26.4485         1.60196 
        5.38789         26.2342         1.59007 
        5.40357         26.0027         1.57831 
        5.41929         25.8464         1.56665 
        5.43502         25.6993          1.5551 
         5.4507         25.4917          1.5437 
        5.46639         25.2526         1.53241 
        5.48212         25.1713         1.52121 
        5.49786         24.9215          1.5101 
        5.51353         24.8061         1.49916 
        5.52921         24.5359         1.48832 
        5.54495          24.401         1.47755 
        5.56066         24.2002         1.46691 
        5.57637         24.0373         1.45636 
        5.59207         23.8183         1.44593 
        5.60778         23.6701          1.4356 
        5.62346         23.4673         1.42539 
        5.63916         23.3077         1.41526 
        5.65487         23.2086         1.40523 
         5.6706         22.9532         1.39528 
        5.68633         22.8097         1.38543 
        5.70203         22.6622         1.37569 
        5.71773         22.4676         1.36604 
        5.73344         22.3461         1.35649 
        5.74916          22.167         1.34701 
        5.76486         22.0456         1.33764 
        5.78054         21.8577         1.32837 
        5.79626         21.7216         1.31917 
          5.812         21.5456         1.31004 
         5.8277         21.4246         1.30103 
        5.84339         21.2193          1.2921 
        5.85911         21.0494         1.28323 
        5.87484         20.9577         1.27445 
        5.89053         20.8185         1.26577 
        5.90623         20.6504         1.25717 
        5.92195         20.5184         1.24863 
        5.93767         20.3683         1.24018 
        5.95336         20.2436         1.23182 
        5.96905         20.0379         1.22354 
        5.98476         19.9136         1.21532 
        6.00048          19.813         1.20718 
        6.01617         19.6413         1.19912 
        6.03185         19.5013         1.19115 
        6.04756         19.3519         1.18322 
        6.06331          19.245         1.17536 
        6.07903         19.1209         1.16758 
        6.09473         18.9626         1.15988 
        6.11044         18.8108         1.15224 
        6.12616         18.6968         1.14467 
        6.14186         18.5821         1.13718 
        6.15755         18.4756         1.12975 
        6.17326         18.3053         1.12239 
        6.18898          18.162         1.11508 
        6.20467          18.084         1.10786 
        6.22036         17.9452          1.1007 
         6.2361         17.8255         1.09358 
         6.2518         17.7214         1.08654 
        6.26748         17.5682         1.07958 
        6.28319         17.4603         1.07265 
        6.29893         17.3596         1.06578 
        6.31463         17.2176         1.05899 
        6.33033         17.0906         1.05225 
        6.34604         16.9781         1.04557 
        6.36177         16.8545         1.03894 
        6.37747         16.7792         1.03238 
