# k  (h/Mpc)    Pcb(k)  (Mpc/h)^3    Pcb_linear(k) (Mpc/h)^3   ShotnoiseSubtracted = true
      0.0200456         9659.73         9780.78 
      0.0350414         7836.92         7669.13 
      0.0492313         5995.55         6076.31 
      0.0637834         4759.94         4941.01 
      0.0800726         3603.46         3732.46 
       0.096163         2997.91         2935.81 
       0.111083         2562.51         2485.16 
       0.126058         2043.72         2065.88 
       0.142273         1710.98         1681.08 
       0.158546         1474.72         1432.09 
        0.17375         1314.68         1245.96 
       0.188953         1181.28         1071.15 
       0.204907         1000.15         927.232 
       0.220756         911.179         819.526 
        0.23588         816.824         727.917 
         0.2514         728.315         644.992 
       0.267535         701.503         575.223 
       0.283568         616.329         516.888 
       0.299022         588.366         466.764 
       0.314451         590.239         423.196 
       0.330372         507.939         384.788 
       0.346141         472.231         351.267 
       0.361624          450.98         321.943 
       0.377134         420.808         296.009 
       0.392932         409.407         272.639 
       0.408854         388.423         251.568 
       0.424564         374.891         232.904 
       0.440253         339.086         216.199 
       0.455999         324.715         201.094 
       0.471626         323.542         187.509 
        0.48727         308.235         175.163 
       0.502856         282.617         163.975 
       0.518488         283.176         153.736 
       0.534347         263.268         144.237 
       0.550082         257.009         135.607 
       0.565732         254.799         127.727 
       0.581496         239.776         120.423 
       0.597222           234.2         113.705 
       0.612804         227.926         107.557 
       0.628434         219.217         101.849 
       0.644267         209.483         96.4897 
       0.660051         204.943         91.5326 
       0.675724          203.65         86.9559 
       0.691403         197.302         82.6916 
       0.707174           191.1         78.6918 
       0.722871         188.067         74.9745 
        0.73838         186.336         71.5385 
       0.754018         175.244         68.2927 
       0.769845         174.895         65.2137 
        0.78569         170.544         62.3221 
       0.801365         166.244         59.6346 
       0.817031         161.332         57.1077 
       0.832809          158.78         54.7116 
       0.848511         155.034          52.464 
       0.864097         151.854         50.3585 
       0.879701         150.327         48.3668 
       0.895507         145.871         46.4598 
       0.911279         142.469         44.6598 
        0.92691         139.673         42.9705 
       0.942635         137.458         41.3597 
       0.958396         135.181         39.8283 
       0.974128         132.176         38.3776 
       0.989692         129.238         37.0139 
        1.00528         127.576         35.7147 
        1.02113         124.326         34.4578 
        1.03692         123.635         33.2664 
        1.05264         121.806         32.1371 
        1.06832         118.282         31.0622 
        1.08405         117.234         30.0338 
        1.09979         116.267         29.0517 
        1.11537         113.106         28.1233 
        1.13105         112.052         27.2302 
        1.14679         109.725         26.3726 
        1.16256         107.699         25.5504 
        1.17828         106.492         24.7661 
        1.19395         103.564         24.0175 
         1.2097         103.538         23.2962 
        1.22537         100.913         22.6081 
          1.241         100.522         21.9499 
        1.25666         97.1197         21.3164 
        1.27241         96.1929         20.7051 
        1.28819         95.4615         20.1167 
        1.30392         93.5416          19.553 
        1.31957         92.5476         19.0135 
        1.33529         91.2294         18.4924 
        1.35108         90.5788         17.9889 
        1.36674         88.9819         17.5078 
         1.3824         88.1964         17.0448 
        1.39811         85.9241          16.597 
        1.41389         84.9766         16.1636 
        1.42964         83.7841         15.7465 
        1.44531         82.7883         15.3462 
        1.46101         81.8595          14.959 
        1.47667         80.9051         14.5864 
        1.49229         79.9683         14.2275 
        1.50793         78.7031         13.8803 
        1.52367         78.0608         13.5425 
        1.53953          76.656         13.2137 
        1.55526         75.5623         12.8984 
        1.57092         75.2762         12.5948 
        1.58662         74.0647         12.3002 
        1.60235         72.9578         12.0146 
        1.61809         71.9958         11.7379 
        1.63369         70.9927         11.4723 
        1.64941         70.7386         11.2132 
        1.66519         69.0948         10.9611 
        1.68085         68.6201         10.7185 
        1.69652         67.0555         10.4833 
        1.71228         66.8412         10.2538 
        1.72806         66.0361          10.031 
        1.74368         65.1036         9.81704 
        1.75933         64.4899         9.60893 
        1.77505         63.9222          9.4059 
        1.79081         62.7338         9.20839 
         1.8065         62.4846          9.0174 
        1.82218         60.6811         8.83201 
        1.83797         60.4796         8.65057 
        1.85367         59.8509         8.47524 
        1.86928         59.2821         8.30584 
        1.88497         58.2314         8.14015 
        1.90073         57.5032         7.97837 
        1.91647         56.9909         7.82114 
        1.93218         56.7008          7.6685 
        1.94787         55.7804         7.52015 
        1.96363         54.8364         7.37515 
        1.97935         54.3748         7.23428 
        1.99499         53.7894         7.09789 
        2.01064         53.2403         6.96482 
         2.0264         52.7349         6.83434 
        2.04216         51.8661         6.70727 
        2.05781         51.2344         6.58423 
        2.07353         50.5168         6.46385 
        2.08928         50.2618         6.34622 
        2.10499         49.6597         6.23183 
        2.12065         49.1366         6.12062 
        2.13633          48.693         6.01202 
        2.15211         47.9184         5.90536 
        2.16785         47.2352         5.80159 
        2.18349         46.6199         5.70097 
        2.19916          46.205         5.60253 
        2.21489         45.8547         5.50608 
        2.23063         45.1112         5.41185 
         2.2463          44.802         5.32025 
        2.26194         44.2864           5.231 
        2.27765         43.7196         5.14334 
        2.29341         43.0944         5.05746 
        2.30914         42.7609         4.97373 
        2.32486         42.0637         4.89194 
        2.34061         41.8405         4.81185 
        2.35635         41.2414         4.73363 
        2.37203         40.8664         4.65742 
        2.38768          40.483         4.58305 
        2.40339         40.1634         4.51004 
        2.41914          39.627         4.43845 
        2.43483         39.0336         4.36866 
         2.4505         38.7281          4.3005 
        2.46622         38.3404         4.23356 
        2.48195         37.9331         4.16803 
        2.49759         37.4112         4.10425 
        2.51328         37.0673         4.04164 
        2.52906         36.7039         3.97994 
        2.54479         36.2778         3.91975 
        2.56049         36.0161         3.86093 
        2.57618         35.5806         3.80337 
        2.59189         35.0291          3.7469 
        2.60758         34.7206         3.69166 
        2.62325         34.5294          3.6376 
        2.63898         34.1609         3.58444 
        2.65468         33.6728         3.53246 
        2.67044         33.3414         3.48128 
        2.68618         33.1679         3.43123 
        2.70184         32.6209         3.38237 
        2.71755         32.3927         3.33434 
        2.73329         31.9233         3.28717 
        2.74897         31.5606         3.24107 
        2.76462          31.277         3.19595 
        2.78034         31.0517         3.15151 
        2.79607         30.6314         3.10786 
        2.81179          30.431          3.0651 
        2.82749         30.0209         3.02318 
        2.84321         29.7873           2.982 
        2.85893          29.513         2.94161 
        2.87462         29.1347         2.90203 
        2.89033         28.8618         2.86314 
        2.90605         28.6612         2.82493 
        2.92176         28.3931         2.78744 
        2.93747         28.0142         2.75065 
        2.95318          27.787         2.71451 
        2.96891         27.5485         2.67901 
        2.98456         27.1892          2.6443 
        3.00023         26.9093         2.61016 
        3.01596         26.6207         2.57651 
        3.03164         26.3919         2.54355 
        3.04738         26.1475         2.51107 
         3.0631         25.9001         2.47917 
        3.07883         25.5612         2.44782 
        3.09456         25.3352         2.41702 
        3.11026         25.0147          2.3868 
        3.12596         24.7515          2.3571 
        3.14163         24.5382         2.32797 
        3.15734         24.3367         2.29927 
        3.17308         24.0799         2.27098 
        3.18879         23.8123         2.24324 
        3.20447         23.5576         2.21601 
         3.2202         23.3489         2.18915 
         3.2359         23.1594         2.16278 
        3.25157         22.9423          2.1369 
        3.26729          22.728         2.11137 
        3.28304         22.4441         2.08621 
        3.29877         22.2401         2.06149 
        3.31446         22.0104         2.03723 
        3.33014         21.7953         2.01338 
        3.34585         21.6765         1.98987 
        3.36158         21.3815          1.9667 
        3.37727         21.2281         1.94398 
        3.39294         21.0216         1.92163 
        3.40867         20.8187         1.89956 
        3.42439         20.6427         1.87784 
        3.44008         20.4091         1.85651 
        3.45578         20.2534         1.83549 
        3.47153         19.9859         1.81475 
        3.48724         19.8945         1.79437 
        3.50292         19.6565         1.77435 
        3.51859         19.4785         1.75464 
        3.53431         19.3508         1.73517 
        3.55007         19.1103         1.71595 
        3.56577         18.9356          1.6971 
        3.58146         18.7439         1.67854 
        3.59719         18.6245         1.66021 
        3.61292         18.3952         1.64216 
        3.62859         18.2017         1.62445 
        3.64429         18.0261         1.60697 
        3.66003         17.9385         1.58969 
        3.67578         17.7802         1.57267 
        3.69146         17.5562         1.55596 
        3.70712         17.4022         1.53953 
        3.72284         17.2496         1.52327 
        3.73853         17.1119         1.50728 
        3.75422          16.914          1.4915 
        3.76993         16.8275         1.47595 
        3.78564         16.6683         1.46062 
        3.80137         16.4991         1.44548 
        3.81707          16.306         1.43059 
        3.83279         16.1782         1.41589 
        3.84853         16.0243         1.40138 
        3.86424         15.8547          1.3871 
        3.87992         15.7653         1.37304 
        3.89561         15.5877         1.35918 
        3.91134         15.4892         1.34548 
        3.92704         15.3501         1.33198 
        3.94273         15.2021         1.31868 
        3.95845          15.014         1.30554 
        3.97418         14.9211         1.29258 
        3.98988         14.7823          1.2798 
        4.00554         14.7046         1.26724 
        4.02125         14.5036         1.25481 
        4.03698         14.4098         1.24252 
        4.05268         14.3013         1.23043 
        4.06839         14.1481         1.21849 
         4.0841          14.034         1.20671 
        4.09983         13.8459         1.19508 
        4.11555         13.7805         1.18359 
        4.13124         13.6591          1.1723 
        4.14693         13.5191         1.16114 
        4.16266         13.4412         1.15009 
        4.17839         13.2914          1.1392 
        4.19408         13.1784         1.12848 
        4.20977         13.0873         1.11789 
        4.22551         12.9478         1.10741 
        4.24123         12.8528         1.09707 
        4.25691         12.7416         1.08689 
        4.27259         12.6074         1.07684 
        4.28831         12.5459          1.0669 
        4.30404         12.4571         1.05707 
        4.31974         12.3273         1.04739 
        4.33543         12.1933         1.03784 
        4.35116         12.1313         1.02838 
        4.36688         12.0058         1.01904 
        4.38255         11.9002         1.00985 
        4.39825         11.8219         1.00076 
        4.41398         11.6866        0.991757 
         4.4297         11.6079        0.982878 
        4.44541         11.4974        0.974108 
        4.46111         11.4165        0.965453 
        4.47683         11.2981        0.956896 
        4.49251         11.2099         0.94846 
        4.50819         11.1205        0.940128 
         4.5239         11.0556        0.931884 
        4.53962         10.9584        0.923729 
        4.55535         10.8515        0.915667 
        4.57106         10.8024        0.907713 
        4.58678         10.6818        0.899852 
         4.6025         10.5956        0.892082 
        4.61821         10.5067        0.884405 
        4.63391         10.4271        0.876828 
         4.6496          10.355        0.869343 
        4.66532         10.2831        0.861934 
        4.68103         10.1718        0.854615 
        4.69673         10.0957        0.847387 
        4.71241         10.0036         0.84025 
        4.72811         9.93456        0.833184 
        4.74384         9.85078        0.826189 
        4.75955         9.77059        0.819286 
        4.77525         9.68623        0.812465 
        4.79096         9.61894        0.805714 
        4.80669         9.53764        0.799036 
         4.8224         9.45291        0.792441 
        4.83809         9.40101        0.785928 
        4.85379         9.31348        0.779484 
         4.8695         9.23702        0.773107 
        4.88521         9.15903        0.766804 
        4.90093         9.09822         0.76057 
        4.91663         9.01387        0.754411 
        4.93234         8.94961        0.748313 
        4.94807         8.87883        0.742279 
        4.96377         8.82188        0.736323 
        4.97943         8.74576        0.730445 
        4.99514         8.67404        0.724616 
        5.01086         8.64391        0.718845 
        5.02654         8.54921        0.713153 
        5.04227         8.46658        0.707505 
          5.058         8.39589        0.701915 
        5.07371         8.35679        0.696398 
        5.08942         8.26872        0.690938 
        5.10513         8.21712        0.685536 
        5.12084         8.17412         0.68019 
        5.13656         8.10452        0.674902 
        5.15225         8.02573        0.669678 
        5.16796         7.97231        0.664502 
        5.18369         7.90416        0.659375 
         5.1994         7.86467        0.654312 
        5.21509         7.80001        0.649307 
        5.23079         7.72429        0.644348 
        5.24649         7.68348        0.639445 
        5.26217         7.61978        0.634596 
        5.27788         7.56797         0.62979 
        5.29359          7.5143        0.625034 
        5.30933         7.45073        0.620319 
        5.32504         7.39473        0.615661 
        5.34073         7.35699        0.611057 
        5.35646         7.28517        0.606489 
        5.37218         7.23717        0.601968 
        5.38789         7.16965          0.5975 
        5.40357         7.12639        0.593083 
        5.41929         7.08564          0.5887 
        5.43502         7.03179        0.584361 
         5.4507         6.98542        0.580076 
        5.46639         6.93147        0.575834 
        5.48212         6.87115        0.571624 
        5.49786         6.83443        0.567451 
        5.51353         6.78435         0.56334 
        5.52921         6.72729        0.559266 
        5.54495         6.66409         0.55522 
        5.56066         6.63708        0.551219 
        5.57637         6.59077        0.547258 
        5.59207         6.55022        0.543339 
        5.60778         6.48905        0.539457 
        5.62346         6.45602        0.535618 
        5.63916         6.39809        0.531813 
        5.65487         6.35247        0.528043 
         5.6706         6.33015        0.524305 
        5.68633         6.27356        0.520602 
        5.70203         6.23775        0.516942 
        5.71773         6.19814        0.513318 
        5.73344         6.13193        0.509727 
        5.74916         6.10206        0.506166 
        5.76486         6.06108        0.502645 
        5.78054         6.01454        0.499163 
        5.79626         5.97493        0.495703 
          5.812         5.92981        0.492274 
         5.8277          5.8909        0.488886 
        5.84339         5.85654        0.485531 
        5.85911         5.80224          0.4822 
        5.87484         5.77312        0.478901 
        5.89053          5.7249         0.47564 
        5.90623         5.70159        0.472407 
        5.92195         5.65929        0.469199 
        5.93767         5.61429        0.466023 
        5.95336         5.58061        0.462881 
        5.96905         5.54313        0.459769 
        5.98476         5.50061        0.456682 
        6.00048         5.47729        0.453621 
        6.01617         5.43558        0.450593 
        6.03185         5.40228        0.447597 
        6.04756         5.36153         0.44462 
        6.06331         5.33225        0.441664 
        6.07903         5.27826        0.438741 
        6.09473          5.2538        0.435847 
        6.11044         5.22691        0.432977 
        6.12616         5.18054        0.430133 
        6.14186         5.14809        0.427317 
        6.15755         5.11453        0.424527 
        6.17326         5.08741        0.421759 
        6.18898         5.03932        0.419015 
        6.20467         5.02304          0.4163 
        6.22036         4.98364        0.413609 
         6.2361         4.95542        0.410935 
         6.2518         4.92245        0.408289 
        6.26748         4.89234        0.405672 
        6.28319           4.855        0.403071 
        6.29893         4.83462         0.40049 
        6.31463         4.79141        0.397936 
        6.33033         4.77108        0.395405 
        6.34604         4.74468        0.392895 
        6.36177         4.70341        0.390404 
        6.37747         4.67339        0.387939 
