# k  (h/Mpc)    Pcb(k)  (Mpc/h)^3    Pcb_linear(k) (Mpc/h)^3   ShotnoiseSubtracted = true
      0.0200456         13934.7         14213.7 
      0.0350414         10725.3           11145 
      0.0492313         8652.66         8830.29 
      0.0637834         7286.01         7180.43 
      0.0800726         5536.63         5424.13 
       0.096163         4107.77         4266.42 
       0.111083         3427.66         3611.52 
       0.126058         3030.39          3002.2 
       0.142273         2549.32            2443 
       0.158546         2276.84         2081.15 
        0.17375         1855.57         1810.67 
       0.188953         1762.51         1556.63 
       0.204907         1647.48         1347.48 
       0.220756         1436.77         1190.96 
        0.23588         1276.91         1057.83 
         0.2514         1109.37         937.323 
       0.267535         1093.94         835.933 
       0.283568         996.309         751.158 
       0.299022         937.215         678.317 
       0.314451         889.875         615.002 
       0.330372         820.749         559.186 
       0.346141         763.723         510.472 
       0.361624         731.618         467.858 
       0.377134         680.784          430.17 
       0.392932          656.14         396.208 
       0.408854         633.229         365.587 
       0.424564         596.609         338.464 
       0.440253         583.615         314.187 
       0.455999         553.321         292.237 
       0.471626          522.01         272.494 
        0.48727          506.53         254.553 
       0.502856          492.25         238.294 
       0.518488          486.38         223.414 
       0.534347         454.967          209.61 
       0.550082         435.624         197.069 
       0.565732         435.408         185.617 
       0.581496         409.461         175.002 
       0.597222         403.994          165.24 
       0.612804         391.567         156.305 
       0.628434         377.026          148.01 
       0.644267          366.28         140.222 
       0.660051         356.879         133.018 
       0.675724          353.46         126.367 
       0.691403         342.312          120.17 
       0.707174         329.801         114.358 
       0.722871         326.079         108.955 
        0.73838         321.031         103.962 
       0.754018         311.406         99.2452 
       0.769845         301.572         94.7706 
        0.78569         300.983         90.5684 
       0.801365         290.789         86.6629 
       0.817031         282.494         82.9908 
       0.832809         279.137         79.5086 
       0.848511         271.832         76.2424 
       0.864097         267.549         73.1825 
       0.879701         263.382         70.2883 
       0.895507         257.509         67.5168 
       0.911279         249.458         64.9011 
        0.92691         248.177         62.4462 
       0.942635         242.832         60.1052 
       0.958396         239.803         57.8798 
       0.974128         234.728         55.7716 
       0.989692         229.398         53.7897 
        1.00528         226.332         51.9017 
        1.02113         224.527         50.0752 
        1.03692         218.551         48.3438 
        1.05264          214.43         46.7026 
        1.06832         210.857         45.1406 
        1.08405         206.506         43.6461 
        1.09979         205.105         42.2188 
        1.11537         199.902         40.8697 
        1.13105         196.176         39.5718 
        1.14679         196.256         38.3255 
        1.16256         192.061         37.1307 
        1.17828         188.156         35.9909 
        1.19395          185.75         34.9031 
         1.2097          184.61         33.8548 
        1.22537         179.924         32.8548 
          1.241         178.681         31.8984 
        1.25666          174.34         30.9777 
        1.27241         172.096         30.0893 
        1.28819         169.664         29.2343 
        1.30392         167.478         28.4151 
        1.31957         165.912         27.6311 
        1.33529         161.675         26.8738 
        1.35108           160.1         26.1421 
        1.36674         158.861         25.4429 
         1.3824         155.508           24.77 
        1.39811         155.565         24.1193 
        1.41389         151.824         23.4895 
        1.42964         148.772         22.8834 
        1.44531         146.481         22.3016 
        1.46101         145.131          21.739 
        1.47667         142.241         21.1974 
        1.49229         140.603         20.6759 
        1.50793         139.537         20.1713 
        1.52367         137.721         19.6804 
        1.53953         134.767         19.2025 
        1.55526         133.107         18.7444 
        1.57092         131.557         18.3032 
        1.58662         129.282         17.8751 
        1.60235         128.222           17.46 
        1.61809         126.192         17.0578 
        1.63369         124.644          16.672 
        1.64941         123.045         16.2953 
        1.66519         120.951          15.929 
        1.68085         120.218         15.5765 
        1.69652         117.081         15.2346 
        1.71228         117.072         14.9011 
        1.72806         115.179         14.5773 
        1.74368         113.943         14.2664 
        1.75933          112.34          13.964 
        1.77505         110.492          13.669 
        1.79081         109.493         13.3819 
         1.8065         107.838         13.1044 
        1.82218         105.947          12.835 
        1.83797         104.757         12.5713 
        1.85367         103.378         12.3165 
        1.86928         102.526         12.0703 
        1.88497         100.132         11.8295 
        1.90073         99.8981         11.5944 
        1.91647          98.038         11.3659 
        1.93218          97.015         11.1441 
        1.94787         96.0116         10.9285 
        1.96363         94.6458         10.7178 
        1.97935          92.961         10.5131 
        1.99499         92.2553         10.3149 
        2.01064         91.0677         10.1215 
         2.0264         89.7748         9.93188 
        2.04216          88.875         9.74722 
        2.05781          87.597         9.56842 
        2.07353         86.1927         9.39347 
        2.08928         85.3641         9.22253 
        2.10499         84.0441          9.0563 
        2.12065         83.5808         8.89468 
        2.13633         82.4498         8.73686 
        2.15211         81.3572         8.58186 
        2.16785         79.9587         8.43106 
        2.18349          78.987         8.28483 
        2.19916         78.3483         8.14177 
        2.21489         77.3399         8.00162 
        2.23063          76.079         7.86468 
         2.2463         75.5966         7.73156 
        2.26194         74.9407         7.60185 
        2.27765          73.577         7.47447 
        2.29341         72.6606         7.34967 
        2.30914         71.5844         7.22798 
        2.32486         70.9454         7.10912 
        2.34061         70.1151         6.99274 
        2.35635         69.3074         6.87907 
        2.37203         68.0395         6.76832 
        2.38768         67.5679         6.66024 
        2.40339         66.7956         6.55413 
        2.41914          65.848         6.45009 
        2.43483           65.68         6.34868 
         2.4505         64.3761         6.24962 
        2.46622         63.7498         6.15234 
        2.48195         62.8845         6.05712 
        2.49759         62.0749         5.96443 
        2.51328         61.5459         5.87344 
        2.52906         60.8939         5.78377 
        2.54479         60.1455         5.69631 
        2.56049         59.2619         5.61083 
        2.57618         58.6882         5.52718 
        2.59189         57.9024         5.44511 
        2.60758         57.3324         5.36484 
        2.62325         56.7261         5.28628 
        2.63898         56.0654         5.20903 
        2.65468         55.5133         5.13348 
        2.67044         54.7734         5.05911 
        2.68618          54.483         4.98638 
        2.70184         53.6937         4.91538 
        2.71755         53.3015         4.84558 
        2.73329         52.3567         4.77703 
        2.74897          51.637         4.71003 
        2.76462         51.3374         4.64446 
        2.78034         50.7386         4.57988 
        2.79607         50.0735         4.51645 
        2.81179         49.4861          4.4543 
        2.82749          48.981         4.39339 
        2.84321         48.4376         4.33355 
        2.85893         47.8863         4.27484 
        2.87462         47.2374         4.21732 
        2.89033         46.9214         4.16081 
        2.90605          46.204         4.10528 
        2.92176         45.8579          4.0508 
        2.93747         45.1906         3.99733 
        2.95318         44.6629         3.94482 
        2.96891         44.0129         3.89323 
        2.98456          43.913         3.84279 
        3.00023         43.2291         3.79316 
        3.01596         42.9311         3.74427 
        3.03164         42.2626         3.69637 
        3.04738         42.0386         3.64917 
         3.0631         41.5225         3.60281 
        3.07883         41.1179         3.55726 
        3.09456         40.7402          3.5125 
        3.11026         40.1997         3.46858 
        3.12596         39.8531         3.42541 
        3.14163          39.346         3.38308 
        3.15734         38.7049         3.34137 
        3.17308          38.645         3.30026 
        3.18879         38.2078         3.25995 
        3.20447         37.7173         3.22038 
         3.2202         37.2992         3.18134 
         3.2359         36.9378         3.14302 
        3.25157         36.5126         3.10542 
        3.26729         36.1741         3.06832 
        3.28304         35.6988         3.03175 
        3.29877         35.4307         2.99583 
        3.31446         35.0929         2.96057 
        3.33014         34.7652         2.92591 
        3.34585         34.3513         2.89174 
        3.36158         34.0082         2.85808 
        3.37727         33.5861         2.82505 
        3.39294         33.3274         2.79258 
        3.40867         32.8862          2.7605 
        3.42439         32.6804         2.72894 
        3.44008         32.4719         2.69794 
        3.45578         31.9151          2.6674 
        3.47153         31.6436         2.63726 
        3.48724         31.4032         2.60764 
        3.50292         31.1139         2.57854 
        3.51859         30.7036          2.5499 
        3.53431         30.4515         2.52161 
        3.55007         30.1607         2.49368 
        3.56577         29.8692         2.46628 
        3.58146         29.5069         2.43931 
        3.59719          29.268         2.41267 
        3.61292         29.0163         2.38644 
        3.62859         28.6936          2.3607 
        3.64429         28.3797          2.3353 
        3.66003          28.108         2.31018 
        3.67578          27.854         2.28545 
        3.69146         27.6783         2.26117 
        3.70712         27.3333         2.23729 
        3.72284          27.158         2.21366 
        3.73853          26.881         2.19042 
        3.75422         26.5711          2.1675 
        3.76993         26.4191         2.14489 
        3.78564          26.159         2.12261 
        3.80137          25.883         2.10062 
        3.81707         25.6254         2.07898 
        3.83279         25.4511         2.05762 
        3.84853         25.1748         2.03653 
        3.86424         24.9228         2.01578 
        3.87992         24.6381         1.99535 
        3.89561         24.4193          1.9752 
        3.91134         24.2177         1.95529 
        3.92704         23.9993         1.93568 
        3.94273         23.7544         1.91635 
        3.95845          23.486         1.89725 
        3.97418         23.4077         1.87841 
        3.98988         23.0386         1.85985 
        4.00554         22.8876         1.84159 
        4.02125         22.7199         1.82353 
        4.03698         22.4285         1.80568 
        4.05268         22.2711          1.7881 
        4.06839         22.0427         1.77075 
         4.0841         21.8869         1.75364 
        4.09983         21.7487         1.73672 
        4.11555          21.528         1.72004 
        4.13124         21.2858         1.70362 
        4.14693         21.0842          1.6874 
        4.16266         20.9027         1.67136 
        4.17839         20.7587         1.65553 
        4.19408         20.4945         1.63994 
        4.20977         20.3371         1.62455 
        4.22551         20.1348         1.60932 
        4.24123         19.9573          1.5943 
        4.25691         19.7926         1.57951 
        4.27259          19.637          1.5649 
        4.28831         19.4688         1.55045 
        4.30404         19.2776         1.53617 
        4.31974         19.1686          1.5221 
        4.33543         18.9593         1.50822 
        4.35116         18.8644         1.49447 
        4.36688         18.6373          1.4809 
        4.38255         18.4955         1.46755 
        4.39825         18.3727         1.45433 
        4.41398         18.1711         1.44125 
         4.4297         18.0331         1.42835 
        4.44541         17.8754         1.41561 
        4.46111         17.7054         1.40303 
        4.47683         17.5764         1.39059 
        4.49251         17.4108         1.37833 
        4.50819         17.2492         1.36622 
         4.5239         17.1552         1.35424 
        4.53962         16.9913         1.34239 
        4.55535         16.8465         1.33068 
        4.57106         16.6595         1.31912 
        4.58678         16.5537         1.30769 
         4.6025         16.4262          1.2964 
        4.61821         16.2574         1.28525 
        4.63391          16.159         1.27424 
         4.6496          16.014         1.26336 
        4.66532         15.8643         1.25259 
        4.68103           15.72         1.24195 
        4.69673         15.6259         1.23145 
        4.71241         15.5223         1.22108 
        4.72811         15.3516         1.21081 
        4.74384         15.2666         1.20065 
        4.75955          15.093         1.19061 
        4.77525         14.9879          1.1807 
        4.79096         14.8636         1.17089 
        4.80669         14.8221         1.16119 
         4.8224         14.6294          1.1516 
        4.83809         14.4829         1.14214 
        4.85379         14.4024         1.13277 
         4.8695         14.3416          1.1235 
        4.88521         14.1802         1.11434 
        4.90093         14.0817         1.10528 
        4.91663         13.9465         1.09633 
        4.93234         13.8398         1.08747 
        4.94807         13.7373          1.0787 
        4.96377          13.608         1.07005 
        4.97943         13.5332         1.06151 
        4.99514         13.4168         1.05303 
        5.01086         13.3035         1.04465 
        5.02654         13.2035         1.03638 
        5.04227         13.1006         1.02817 
          5.058         12.9955         1.02005 
        5.07371         12.8912         1.01203 
        5.08942         12.8055         1.00409 
        5.10513         12.7078        0.996244 
        5.12084         12.6001        0.988474 
        5.13656         12.4832        0.980789 
        5.15225         12.4073        0.973198 
        5.16796         12.2958        0.965676 
        5.18369          12.225        0.958226 
         5.1994         12.1462        0.950868 
        5.21509          12.018        0.943594 
        5.23079         11.9238        0.936387 
        5.24649         11.8433        0.929262 
        5.26217          11.778        0.922215 
        5.27788         11.6536        0.915232 
        5.29359         11.5772        0.908319 
        5.30933         11.4675        0.901468 
        5.32504         11.4183        0.894699 
        5.34073         11.3264        0.888007 
        5.35646         11.2485         0.88137 
        5.37218         11.1474          0.8748 
        5.38789          11.079        0.868307 
        5.40357          10.992        0.861887 
        5.41929         10.9087        0.855518 
        5.43502         10.8305        0.849213 
         5.4507         10.7557        0.842986 
        5.46639         10.6666         0.83682 
        5.48212          10.601        0.830702 
        5.49786           10.52        0.824638 
        5.51353          10.442        0.818664 
        5.52921         10.3743        0.812744 
        5.54495         10.2991        0.806864 
        5.56066         10.2202        0.801049 
        5.57637         10.1332        0.795293 
        5.59207         10.0547        0.789598 
        5.60778         9.99012        0.783956 
        5.62346          9.9265        0.778377 
        5.63916         9.84737        0.772848 
        5.65487         9.76572        0.767369 
         5.6706         9.71547        0.761937 
        5.68633         9.63912        0.756555 
        5.70203         9.57005        0.751237 
        5.71773         9.48589         0.74597 
        5.73344         9.44381        0.740751 
        5.74916         9.36047        0.735578 
        5.76486         9.29417         0.73046 
        5.78054         9.22642        0.725399 
        5.79626          9.1413        0.720372 
          5.812         9.10192        0.715388 
         5.8277         9.02078        0.710465 
        5.84339         8.96295        0.705589 
        5.85911         8.91822        0.700749 
        5.87484         8.83962        0.695955 
        5.89053          8.7777        0.691215 
        5.90623         8.70103        0.686518 
        5.92195         8.65579        0.681856 
        5.93767         8.58469         0.67724 
        5.95336         8.54247        0.672674 
        5.96905         8.47827        0.668151 
        5.98476         8.41925        0.663665 
        6.00048         8.34461        0.659217 
        6.01617         8.30379        0.654817 
        6.03185         8.24276        0.650462 
        6.04756         8.19524        0.646136 
        6.06331          8.1428         0.64184 
        6.07903         8.08276        0.637592 
        6.09473          8.0394        0.633387 
        6.11044         7.97324        0.629216 
        6.12616         7.91776        0.625083 
        6.14186         7.86017        0.620991 
        6.15755         7.81336        0.616936 
        6.17326         7.76504        0.612914 
        6.18898         7.70577        0.608926 
        6.20467         7.65127        0.604981 
        6.22036         7.59495         0.60107 
         6.2361         7.53718        0.597184 
         6.2518         7.50272        0.593339 
        6.26748         7.45328        0.589536 
        6.28319         7.41113        0.585755 
        6.29893          7.3593        0.582005 
        6.31463         7.30133        0.578293 
        6.33033         7.26159        0.574616 
        6.34604         7.22001        0.570967 
        6.36177         7.15811        0.567347 
        6.37747         7.11265        0.563765 
