# k  (h/Mpc)    Pcb(k)  (Mpc/h)^3    Pcb_linear(k) (Mpc/h)^3   ShotnoiseSubtracted = true
      0.0200456         14665.7         14964.9 
      0.0350414         11277.2           11734 
      0.0492313         9099.64         9296.95 
      0.0637834         7669.47          7559.9 
      0.0800726         5827.59         5710.78 
       0.096163         4318.86         4491.89 
       0.111083          3604.9         3802.38 
       0.126058         3189.08         3160.86 
       0.142273         2684.38         2572.11 
       0.158546         2404.11         2191.14 
        0.17375         1957.67         1906.36 
       0.188953         1863.05         1638.89 
       0.204907         1742.13         1418.69 
       0.220756         1520.91          1253.9 
        0.23588         1352.62         1113.74 
         0.2514         1175.29         986.858 
       0.267535         1161.85          880.11 
       0.283568         1057.73         790.855 
       0.299022          995.94         714.164 
       0.314451         946.784         647.503 
       0.330372         873.047         588.738 
       0.346141         815.743         537.449 
       0.361624         781.536         492.583 
       0.377134         727.106         452.903 
       0.392932         701.549         417.147 
       0.408854         678.149         384.907 
       0.424564         637.566         356.351 
       0.440253         624.475         330.791 
       0.455999         593.189          307.68 
       0.471626         561.277         286.895 
        0.48727         543.821         268.005 
       0.502856         528.877         250.887 
       0.518488         522.279         235.221 
       0.534347         488.548         220.688 
       0.550082         469.208         207.483 
       0.565732          469.34         195.426 
       0.581496           441.1          184.25 
       0.597222         435.426         173.973 
       0.612804         422.587         164.566 
       0.628434         407.342         155.832 
       0.644267         395.925         147.632 
       0.660051         384.768         140.048 
       0.675724         381.637         133.045 
       0.691403         369.383         126.521 
       0.707174         356.175         120.401 
       0.722871         352.236         114.713 
        0.73838         346.876         109.456 
       0.754018         336.306          104.49 
       0.769845          326.34          99.779 
        0.78569         325.179         95.3548 
       0.801365         314.362         91.2428 
       0.817031         305.444         87.3766 
       0.832809         302.105         83.7104 
       0.848511         294.141         80.2716 
       0.864097         288.981           77.05 
       0.879701         284.805         74.0028 
       0.895507         278.883         71.0849 
       0.911279         270.003          68.331 
        0.92691         268.164         65.7463 
       0.942635         262.497         63.2816 
       0.958396           258.4         60.9386 
       0.974128          253.38          58.719 
       0.989692         248.111         56.6324 
        1.00528         244.601         54.6446 
        1.02113         242.419         52.7216 
        1.03692         236.317         50.8986 
        1.05264         232.093         49.1707 
        1.06832         227.939         47.5261 
        1.08405         223.197         45.9527 
        1.09979         221.257           44.45 
        1.11537         216.216         43.0296 
        1.13105         211.622         41.6631 
        1.14679         211.689         40.3509 
        1.16256          207.01          39.093 
        1.17828         203.018          37.893 
        1.19395         200.305         36.7476 
         1.2097         199.243         35.6439 
        1.22537         193.937         34.5911 
          1.241         192.977         33.5841 
        1.25666          187.98         32.6148 
        1.27241         185.776         31.6794 
        1.28819         182.968         30.7792 
        1.30392         180.401         29.9168 
        1.31957         179.185         29.0913 
        1.33529         174.705          28.294 
        1.35108         172.345         27.5236 
        1.36674         171.179         26.7875 
         1.3824         167.837          26.079 
        1.39811         167.858         25.3939 
        1.41389          163.83         24.7309 
        1.42964         160.686         24.0927 
        1.44531           158.3         23.4802 
        1.46101         157.003         22.8878 
        1.47667         153.432         22.3177 
        1.49229         151.655         21.7685 
        1.50793         150.379         21.2373 
        1.52367         148.507         20.7204 
        1.53953         145.289         20.2173 
        1.55526         143.457          19.735 
        1.57092         141.942         19.2704 
        1.58662         139.319         18.8198 
        1.60235         138.074         18.3827 
        1.61809         136.152         17.9593 
        1.63369         134.217          17.553 
        1.64941         132.203         17.1565 
        1.66519         130.261         16.7708 
        1.68085         129.526         16.3997 
        1.69652         126.359         16.0397 
        1.71228         125.738         15.6886 
        1.72806         123.882         15.3477 
        1.74368          122.68         15.0204 
        1.75933         120.861          14.702 
        1.77505         118.888         14.3913 
        1.79081         117.983         14.0891 
         1.8065         116.086         13.7969 
        1.82218         114.049         13.5133 
        1.83797         112.717         13.2357 
        1.85367         111.321         12.9674 
        1.86928         110.267         12.7082 
        1.88497         107.699         12.4547 
        1.90073         107.307         12.2072 
        1.91647         105.368         11.9666 
        1.93218         104.238          11.733 
        1.94787          103.07         11.5061 
        1.96363         101.735         11.2842 
        1.97935         99.7331         11.0687 
        1.99499         99.0062           10.86 
        2.01064         97.6996         10.6564 
         2.0264          96.366         10.4568 
        2.04216         95.4927         10.2623 
        2.05781         94.0668         10.0741 
        2.07353         92.7366         9.88989 
        2.08928          91.659         9.70992 
        2.10499          90.107          9.5349 
        2.12065          89.653         9.36474 
        2.13633         88.5195         9.19858 
        2.15211         87.3974         9.03539 
        2.16785         85.7446         8.87662 
        2.18349         84.6894         8.72267 
        2.19916         84.0709         8.57204 
        2.21489         82.9741         8.42449 
        2.23063          81.449          8.2803 
         2.2463         81.0353         8.14015 
        2.26194         80.3909         8.00359 
        2.27765          78.769         7.86947 
        2.29341         78.0061         7.73808 
        2.30914         76.7126         7.60996 
        2.32486         76.1355         7.48482 
        2.34061         75.2788         7.36228 
        2.35635          74.098         7.24261 
        2.37203         72.9304         7.12601 
        2.38768         72.3061         7.01222 
        2.40339         71.6639          6.9005 
        2.41914         70.3911         6.79096 
        2.43483         70.2535         6.68419 
         2.4505         68.9249          6.5799 
        2.46622         68.2508         6.47747 
        2.48195         67.3488         6.37723 
        2.49759         66.5778         6.27963 
        2.51328         65.8889         6.18383 
        2.52906         65.1447         6.08943 
        2.54479         64.4899         5.99735 
        2.56049           63.49         5.90735 
        2.57618          62.915         5.81928 
        2.59189         61.9528         5.73287 
        2.60758         61.3013         5.64836 
        2.62325         60.7674         5.56565 
        2.63898         59.9702         5.48431 
        2.65468         59.3427         5.40477 
        2.67044         58.5234         5.32647 
        2.68618         58.2594          5.2499 
        2.70184         57.5751         5.17514 
        2.71755         56.9835         5.10165 
        2.73329         56.0571         5.02948 
        2.74897         55.3282         4.95894 
        2.76462         54.8236         4.88991 
        2.78034         54.1815         4.82191 
        2.79607         53.6198         4.75513 
        2.81179         52.8528          4.6897 
        2.82749         52.4691         4.62557 
        2.84321         51.7674         4.56256 
        2.85893         51.1713         4.50075 
        2.87462         50.5362         4.44019 
        2.89033         50.1546         4.38069 
        2.90605         49.4085         4.32223 
        2.92176         49.0491         4.26487 
        2.93747         48.4109         4.20858 
        2.95318         47.7847         4.15329 
        2.96891         47.1681         4.09897 
        2.98456         46.8635         4.04587 
        3.00023         46.1447         3.99362 
        3.01596         45.8229         3.94214 
        3.03164         45.1352         3.89171 
        3.04738         44.7446         3.84202 
         3.0631         44.3532         3.79321 
        3.07883         43.8805         3.74525 
        3.09456         43.5746         3.69812 
        3.11026         42.9186         3.65188 
        3.12596         42.5076         3.60644 
        3.14163         41.9893         3.56187 
        3.15734         41.4313         3.51795 
        3.17308         41.2181         3.47467 
        3.18879         40.7976         3.43223 
        3.20447         40.2303         3.39057 
         3.2202         39.9039         3.34946 
         3.2359         39.4397         3.30912 
        3.25157         39.0941         3.26953 
        3.26729         38.6355         3.23047 
        3.28304         38.1514         3.19197 
        3.29877         37.7931         3.15415 
        3.31446         37.4514         3.11703 
        3.33014         37.1842         3.08053 
        3.34585         36.7405         3.04457 
        3.36158         36.3135         3.00912 
        3.37727         35.8736         2.97435 
        3.39294          35.569         2.94016 
        3.40867         35.0843         2.90639 
        3.42439         34.8591         2.87316 
        3.44008          34.615         2.84052 
        3.45578         34.0715         2.80836 
        3.47153         33.7509         2.77663 
        3.48724          33.526         2.74544 
        3.50292         33.2451         2.71481 
        3.51859          32.731         2.68466 
        3.53431         32.4544         2.65487 
        3.55007         32.1422         2.62546 
        3.56577         31.8379         2.59662 
        3.58146         31.4159         2.56822 
        3.59719         31.2268         2.54017 
        3.61292         30.9247         2.51256 
        3.62859         30.6418         2.48546 
        3.64429          30.286         2.45871 
        3.66003         29.9944         2.43227 
        3.67578         29.7053         2.40623 
        3.69146         29.5034         2.38067 
        3.70712         29.1419         2.35552 
        3.72284         28.9049         2.33065 
        3.73853         28.6992         2.30618 
        3.75422         28.3334         2.28205 
        3.76993         28.1633         2.25824 
        3.78564          27.871         2.23479 
        3.80137         27.5385         2.21163 
        3.81707         27.2963         2.18884 
        3.83279         27.0545         2.16636 
        3.84853         26.8561         2.14416 
        3.86424         26.5933         2.12231 
        3.87992         26.3126          2.1008 
        3.89561          26.074         2.07959 
        3.91134          25.794         2.05862 
        3.92704         25.5647         2.03797 
        3.94273         25.3159         2.01763 
        3.95845         25.0215         1.99752 
        3.97418         24.9461         1.97768 
        3.98988         24.6021         1.95814 
        4.00554         24.3841         1.93892 
        4.02125         24.1948          1.9199 
        4.03698         23.9026          1.9011 
        4.05268         23.7503          1.8826 
        4.06839         23.4763         1.86433 
         4.0841          23.326         1.84631 
        4.09983         23.1516          1.8285 
        4.11555         22.9378         1.81094 
        4.13124         22.6997         1.79365 
        4.14693         22.4771         1.77657 
        4.16266         22.2376         1.75968 
        4.17839         22.1152         1.74302 
        4.19408          21.885         1.72661 
        4.20977         21.6552          1.7104 
        4.22551         21.4844         1.69437 
        4.24123         21.2756         1.67855 
        4.25691         21.1008         1.66298 
        4.27259         20.9004         1.64761 
        4.28831         20.7428         1.63239 
        4.30404         20.5176         1.61736 
        4.31974         20.4005         1.60254 
        4.33543         20.1867         1.58792 
        4.35116         20.0701         1.57345 
        4.36688         19.8551         1.55916 
        4.38255         19.6909          1.5451 
        4.39825         19.5642         1.53119 
        4.41398         19.3751         1.51742 
         4.4297         19.1989         1.50383 
        4.44541         19.0425         1.49042 
        4.46111         18.8484         1.47717 
        4.47683         18.7054         1.46408 
        4.49251          18.538         1.45117 
        4.50819         18.4075         1.43843 
         4.5239         18.2613         1.42581 
        4.53962         18.1032         1.41333 
        4.55535         17.9423           1.401 
        4.57106         17.7892         1.38883 
        4.58678         17.6284          1.3768 
         4.6025         17.4875         1.36491 
        4.61821         17.3311         1.35317 
        4.63391         17.1985         1.34158 
         4.6496         17.0393         1.33012 
        4.66532         16.8836         1.31879 
        4.68103         16.7541         1.30759 
        4.69673         16.6165         1.29653 
        4.71241         16.5108         1.28561 
        4.72811         16.3498          1.2748 
        4.74384         16.2507          1.2641 
        4.75955         16.0553         1.25353 
        4.77525         15.9496          1.2431 
        4.79096         15.8399         1.23277 
        4.80669         15.7464         1.22255 
         4.8224         15.5549         1.21246 
        4.83809         15.4064         1.20249 
        4.85379         15.3283         1.19264 
         4.8695         15.2352         1.18288 
        4.88521         15.0824         1.17323 
        4.90093          14.972          1.1637 
        4.91663         14.8303         1.15427 
        4.93234         14.7174         1.14494 
        4.94807         14.6119         1.13571 
        4.96377         14.4938          1.1266 
        4.97943         14.4012          1.1176 
        4.99514         14.2736         1.10868 
        5.01086         14.1388         1.09986 
        5.02654         14.0041         1.09115 
        5.04227         13.9374          1.0825 
          5.058         13.7964         1.07395 
        5.07371         13.7298         1.06551 
        5.08942         13.6299         1.05716 
        5.10513         13.5252         1.04889 
        5.12084         13.3971         1.04071 
        5.13656         13.2856         1.03262 
        5.15225         13.1924         1.02463 
        5.16796         13.0519         1.01671 
        5.18369         12.9941         1.00887 
         5.1994         12.9026         1.00112 
        5.21509         12.7818         0.99346 
        5.23079         12.6804        0.985873 
        5.24649         12.5939        0.978371 
        5.26217         12.5276        0.970952 
        5.27788         12.3881        0.963599 
        5.29359          12.315        0.956322 
        5.30933         12.1843        0.949108 
        5.32504         12.1336        0.941982 
        5.34073         12.0241        0.934936 
        5.35646         11.9522        0.927948 
        5.37218          11.829         0.92103 
        5.38789         11.7712        0.914194 
        5.40357         11.6688        0.907435 
        5.41929         11.5901         0.90073 
        5.43502         11.5174        0.894091 
         5.4507         11.4225        0.887535 
        5.46639         11.3144        0.881044 
        5.48212         11.2567        0.874603 
        5.49786         11.1849        0.868218 
        5.51353         11.0841        0.861929 
        5.52921         11.0153        0.855695 
        5.54495         10.9387        0.849505 
        5.56066         10.8492        0.843383 
        5.57637         10.7611        0.837322 
        5.59207         10.6851        0.831326 
        5.60778         10.6104        0.825386 
        5.62346         10.5527        0.819513 
        5.63916         10.4589        0.813691 
        5.65487         10.3733        0.807922 
         5.6706         10.3263        0.802203 
        5.68633         10.2325        0.796537 
        5.70203         10.1678        0.790937 
        5.71773         10.0825        0.785393 
        5.73344         10.0231        0.779898 
        5.74916         9.95246        0.774451 
        5.76486         9.87825        0.769063 
        5.78054         9.80068        0.763735 
        5.79626         9.72242        0.758442 
          5.812         9.66833        0.753194 
         5.8277         9.59025        0.748011 
        5.84339         9.52423        0.742877 
        5.85911          9.4658        0.737781 
        5.87484         9.40247        0.732734 
        5.89053          9.3408        0.727744 
        5.90623         9.25922        0.722798 
        5.92195          9.2078         0.71789 
        5.93767         9.13172         0.71303 
        5.95336          9.0671        0.708223 
        5.96905         9.01535        0.703462 
        5.98476         8.95437        0.698737 
        6.00048         8.87465        0.694055 
        6.01617          8.8172        0.689422 
        6.03185         8.75562        0.684837 
        6.04756         8.70578        0.680282 
        6.06331         8.65004         0.67576 
        6.07903         8.58526        0.671287 
        6.09473         8.53671         0.66686 
        6.11044         8.46837        0.662468 
        6.12616         8.41134        0.658117 
        6.14186         8.35495        0.653809 
        6.15755         8.29825        0.649539 
        6.17326          8.2406        0.645305 
        6.18898         8.19303        0.641106 
        6.20467         8.12519        0.636952 
        6.22036         8.07377        0.632835 
         6.2361         8.01226        0.628744 
         6.2518         7.97047        0.624695 
        6.26748         7.91632        0.620691 
        6.28319         7.87278        0.616711 
        6.29893         7.80531        0.612762 
        6.31463         7.75042        0.608855 
        6.33033          7.7176        0.604983 
        6.34604         7.65888        0.601141 
        6.36177         7.61193         0.59733 
        6.37747         7.56455        0.593558 
