# k  (h/Mpc)    Pcb(k)  (Mpc/h)^3    Pcb_linear(k) (Mpc/h)^3   ShotnoiseSubtracted = true
      0.0200456         5114.49         5192.14 
      0.0350414         3991.47         4071.17 
      0.0492313         3204.98         3225.62 
      0.0637834         2659.98         2622.94 
      0.0800726         2022.98         1981.38 
       0.096163         1530.14         1558.48 
       0.111083         1276.97         1319.25 
       0.126058         1109.83         1096.67 
       0.142273         923.724         892.405 
       0.158546         795.634         760.225 
        0.17375         663.074         661.421 
       0.188953          605.35         568.621 
       0.204907         557.571         492.222 
       0.220756         479.764         435.046 
        0.23588         424.619         386.416 
         0.2514         371.171         342.395 
       0.267535         348.098         305.358 
       0.283568         317.729         274.391 
       0.299022          293.84         247.782 
       0.314451         267.643         224.654 
       0.330372         247.832         204.265 
       0.346141         224.424          186.47 
       0.361624         212.611         170.904 
       0.377134         200.348         157.137 
       0.392932         182.494         144.731 
       0.408854         175.266         133.545 
       0.424564         168.272         123.638 
       0.440253         157.363         114.769 
       0.455999         148.608         106.751 
       0.471626         137.102         99.5394 
        0.48727         133.549         92.9855 
       0.502856         127.312         87.0464 
       0.518488         123.431         81.6108 
       0.534347         118.105         76.5685 
       0.550082         109.291         71.9873 
       0.565732         104.816         67.8039 
       0.581496         100.933         63.9265 
       0.597222         97.7592         60.3606 
       0.612804         92.7347         57.0968 
       0.628434         90.6835         54.0665 
       0.644267         87.7905         51.2217 
       0.660051         85.1476         48.5902 
       0.675724         81.8818         46.1607 
       0.691403         79.4664          43.897 
       0.707174         76.9429         41.7737 
       0.722871         74.7614         39.8003 
        0.73838         73.0526         37.9763 
       0.754018         69.5845         36.2533 
       0.769845         68.1274         34.6188 
        0.78569         66.4026         33.0838 
       0.801365          64.114         31.6571 
       0.817031          62.399         30.3157 
       0.832809         61.5373         29.0437 
       0.848511         58.6135         27.8506 
       0.864097         57.2202         26.7329 
       0.879701         56.5292         25.6756 
       0.895507         55.6054         24.6632 
       0.911279          54.232         23.7077 
        0.92691         52.7277          22.811 
       0.942635         51.0447         21.9558 
       0.958396         50.7277         21.1429 
       0.974128         49.3428         20.3728 
       0.989692         48.4859         19.6489 
        1.00528         47.5358         18.9592 
        1.02113         46.0361          18.292 
        1.03692         45.2332         17.6595 
        1.05264         44.5347           17.06 
        1.06832         43.5912         16.4894 
        1.08405         42.9349         15.9435 
        1.09979         42.0587         15.4221 
        1.11537         40.7088         14.9293 
        1.13105         40.7734         14.4552 
        1.14679         40.1425         13.9999 
        1.16256         39.0387         13.5635 
        1.17828         38.3677         13.1471 
        1.19395         37.6113         12.7497 
         1.2097         37.2837         12.3668 
        1.22537          36.722         12.0015 
          1.241         35.9196         11.6522 
        1.25666         35.0504         11.3159 
        1.27241         34.8528         10.9913 
        1.28819         33.8707          10.679 
        1.30392         33.5349         10.3798 
        1.31957         33.3135         10.0934 
        1.33529         32.9372         9.81674 
        1.35108         32.1937         9.54944 
        1.36674         31.6258         9.29403 
         1.3824         31.0352         9.04823 
        1.39811         30.8148         8.81053 
        1.41389         30.4014         8.58049 
        1.42964         29.9103         8.35907 
        1.44531           29.66         8.14657 
        1.46101         28.9002         7.94103 
        1.47667         28.6816         7.74321 
        1.49229         28.4638         7.55269 
        1.50793         27.9507         7.36837 
        1.52367         27.6985         7.18904 
        1.53953         27.3835         7.01449 
        1.55526         26.8773         6.84714 
        1.57092         26.5738         6.68597 
        1.58662         26.1999         6.52961 
        1.60235         25.9173         6.37796 
        1.61809         25.5829         6.23106 
        1.63369         25.2775         6.09011 
        1.64941         24.7821         5.95252 
        1.66519         24.6797         5.81869 
        1.68085         24.3141         5.68995 
        1.69652         24.0103         5.56506 
        1.71228         23.7826         5.44323 
        1.72806         23.4784         5.32496 
        1.74368         23.1704         5.21139 
        1.75933         22.8775         5.10092 
        1.77505         22.6782         4.99314 
        1.79081         22.3539         4.88829 
         1.8065          22.232          4.7869 
        1.82218         21.8543         4.68849 
        1.83797         21.5815         4.59217 
        1.85367         21.3724          4.4991 
        1.86928         21.1537         4.40917 
        1.88497          20.857         4.32121 
        1.90073         20.8293         4.23533 
        1.91647         20.4682         4.15187 
        1.93218         20.2875         4.07083 
        1.94787         20.1367         3.99208 
        1.96363         19.9404         3.91511 
        1.97935         19.7022         3.84033 
        1.99499         19.4487         3.76793 
        2.01064         19.2472         3.69729 
         2.0264         18.9978         3.62802 
        2.04216         18.8521         3.56056 
        2.05781         18.5955         3.49525 
        2.07353         18.4262         3.43134 
        2.08928         18.3013          3.3689 
        2.10499         18.0169         3.30818 
        2.12065          17.774         3.24914 
        2.13633         17.7332         3.19149 
        2.15211         17.4713         3.13487 
        2.16785          17.418         3.07978 
        2.18349         17.2386         3.02637 
        2.19916         16.9692         2.97411 
        2.21489         16.8709         2.92291 
        2.23063         16.6656         2.87289 
         2.2463          16.501         2.82426 
        2.26194         16.3754         2.77688 
        2.27765         16.2206         2.73035 
        2.29341         16.0339         2.68476 
        2.30914         15.8243         2.64031 
        2.32486         15.7799         2.59689 
        2.34061         15.5793         2.55438 
        2.35635         15.4104         2.51286 
        2.37203         15.3261          2.4724 
        2.38768         15.1722         2.43292 
        2.40339         14.9434         2.39416 
        2.41914         14.8231         2.35616 
        2.43483         14.7286         2.31911 
         2.4505         14.5772         2.28293 
        2.46622         14.4696         2.24739 
        2.48195         14.2989         2.21261 
        2.49759         14.2261         2.17875 
        2.51328         14.0471         2.14551 
        2.52906         13.8919         2.11275 
        2.54479          13.823         2.08081 
        2.56049         13.7008         2.04958 
        2.57618         13.6175         2.01902 
        2.59189         13.4232         1.98905 
        2.60758         13.3514         1.95972 
        2.62325         13.2614         1.93103 
        2.63898         13.0425         1.90281 
        2.65468         13.0029         1.87521 
        2.67044         12.8703         1.84804 
        2.68618         12.7354         1.82148 
        2.70184         12.6446         1.79554 
        2.71755         12.5036         1.77004 
        2.73329         12.4002           1.745 
        2.74897         12.2823         1.72053 
        2.76462         12.2686         1.69658 
        2.78034         12.0716         1.67298 
        2.79607         11.9741         1.64981 
        2.81179         11.8553         1.62711 
        2.82749         11.7954         1.60486 
        2.84321         11.6491           1.583 
        2.85893         11.5749         1.56156 
        2.87462         11.4837         1.54055 
        2.89033         11.3347          1.5199 
        2.90605         11.2582         1.49962 
        2.92176          11.199         1.47972 
        2.93747         11.0501         1.46019 
        2.95318         11.0269           1.441 
        2.96891         10.8956         1.42216 
        2.98456         10.8132         1.40373 
        3.00023         10.7242         1.38561 
        3.01596         10.6314         1.36774 
        3.03164         10.5612         1.35025 
        3.04738         10.4485         1.33301 
         3.0631         10.3207         1.31607 
        3.07883         10.2805         1.29943 
        3.09456          10.213         1.28308 
        3.11026         10.0591         1.26704 
        3.12596         10.0588         1.25127 
        3.14163         9.94628         1.23581 
        3.15734         9.84997         1.22057 
        3.17308         9.81582         1.20555 
        3.18879          9.6956         1.19083 
        3.20447         9.60438         1.17637 
         3.2202         9.53796         1.16211 
         3.2359         9.47054         1.14811 
        3.25157         9.40131         1.13438 
        3.26729         9.31549         1.12083 
        3.28304         9.24038         1.10747 
        3.29877         9.15705         1.09435 
        3.31446         9.11611         1.08147 
        3.33014          9.0002          1.0688 
        3.34585         8.96192         1.05633 
        3.36158         8.87048         1.04403 
        3.37727         8.82501         1.03196 
        3.39294         8.74945          1.0201 
        3.40867         8.63048         1.00838 
        3.42439         8.60733        0.996856 
        3.44008         8.52507        0.985531 
        3.45578         8.46565        0.974374 
        3.47153         8.41632        0.963365 
        3.48724         8.33585        0.952545 
        3.50292         8.27291        0.941916 
        3.51859         8.20091        0.931455 
        3.53431         8.14314         0.92112 
        3.55007         8.10343        0.910917 
        3.56577         8.04057        0.900908 
        3.58146         7.96958        0.891054 
        3.59719         7.89348        0.881325 
        3.61292         7.83793        0.871744 
        3.62859          7.7546        0.862342 
        3.64429         7.71117        0.853061 
        3.66003         7.64743        0.843887 
        3.67578         7.59461        0.834852 
        3.69146         7.53268        0.825984 
        3.70712         7.50328         0.81726 
        3.72284         7.40243         0.80863 
        3.73853         7.37134        0.800139 
        3.75422         7.30537        0.791767 
        3.76993         7.26944        0.783508 
        3.78564         7.21343         0.77537 
        3.80137          7.1456        0.767335 
        3.81707         7.07887        0.759429 
        3.83279         7.07925        0.751629 
        3.84853         6.98461        0.743926 
        3.86424          6.9211        0.736346 
        3.87992         6.88196        0.728883 
        3.89561         6.81954        0.721522 
        3.91134         6.77817        0.714249 
        3.92704         6.73032        0.707084 
        3.94273         6.68574        0.700024 
        3.95845         6.63389        0.693048 
        3.97418         6.59961        0.686165 
        3.98988         6.53381        0.679386 
        4.00554         6.48747        0.672716 
        4.02125         6.42962        0.666116 
        4.03698         6.39588        0.659595 
        4.05268         6.35769        0.653176 
        4.06839         6.30334        0.646838 
         4.0841         6.26342        0.640586 
        4.09983         6.21973        0.634407 
        4.11555         6.17749        0.628313 
        4.13124         6.11097        0.622315 
        4.14693         6.06526        0.616391 
        4.16266         6.00718         0.61053 
        4.17839         5.97733        0.604748 
        4.19408         5.92579        0.599055 
        4.20977         5.87619        0.593432 
        4.22551         5.84237        0.587868 
        4.24123         5.79734        0.582381 
        4.25691         5.75811        0.576979 
        4.27259         5.70245        0.571644 
        4.28831         5.67036        0.566366 
        4.30404           5.628        0.561149 
        4.31974         5.58824        0.556009 
        4.33543         5.54723        0.550936 
        4.35116         5.50945        0.545915 
        4.36688         5.45949        0.540958 
        4.38255         5.40741        0.536081 
        4.39825          5.3902        0.531254 
        4.41398         5.34767        0.526476 
         4.4297         5.33052        0.521762 
        4.44541         5.26347        0.517107 
        4.46111         5.23776        0.512512 
        4.47683         5.18331         0.50797 
        4.49251         5.16586        0.503491 
        4.50819         5.13162        0.499068 
         4.5239         5.08789        0.494692 
        4.53962         5.05762        0.490363 
        4.55535         5.01616        0.486083 
        4.57106         4.97844        0.481861 
        4.58678         4.94413        0.477688 
         4.6025         4.90445        0.473563 
        4.61821         4.87668        0.469488 
        4.63391         4.84171        0.465466 
         4.6496         4.80413        0.461492 
        4.66532         4.78033        0.457559 
        4.68103         4.73993        0.453674 
        4.69673         4.70775        0.449837 
        4.71241         4.67109        0.446048 
        4.72811         4.65315        0.442297 
        4.74384         4.61834        0.438584 
        4.75955         4.58279        0.434919 
        4.77525         4.54397        0.431298 
        4.79096         4.51825        0.427714 
        4.80669         4.47306        0.424169 
         4.8224         4.46103        0.420669 
        4.83809         4.42007        0.417211 
        4.85379         4.39165         0.41379 
         4.8695         4.36291        0.410405 
        4.88521         4.34033        0.407059 
        4.90093         4.30828         0.40375 
        4.91663         4.26951         0.40048 
        4.93234         4.25679        0.397243 
        4.94807         4.22099         0.39404 
        4.96377         4.19064        0.390878 
        4.97943         4.15767        0.387758 
        4.99514         4.13039        0.384663 
        5.01086         4.10768          0.3816 
        5.02654         4.08231        0.378578 
        5.04227         4.05057         0.37558 
          5.058         4.02726        0.372613 
        5.07371         4.00304        0.369684 
        5.08942         3.97679        0.366785 
        5.10513         3.94897        0.363918 
        5.12084         3.92607         0.36108 
        5.13656         3.90487        0.358273 
        5.15225         3.88065          0.3555 
        5.16796         3.84662        0.352752 
        5.18369         3.82047         0.35003 
         5.1994         3.79933        0.347343 
        5.21509         3.77604        0.344686 
        5.23079         3.74683        0.342053 
        5.24649         3.72632         0.33945 
        5.26217         3.69984        0.336876 
        5.27788         3.67338        0.334325 
        5.29359         3.64586          0.3318 
        5.30933         3.62834        0.329297 
        5.32504         3.60428        0.326825 
        5.34073         3.58002         0.32438 
        5.35646         3.55669        0.321956 
        5.37218         3.53837        0.319556 
        5.38789         3.51502        0.317184 
        5.40357         3.50059        0.314839 
        5.41929         3.46342        0.312512 
        5.43502         3.44825        0.310209 
         5.4507         3.42952        0.307934 
        5.46639         3.40383        0.305682 
        5.48212         3.38677        0.303447 
        5.49786         3.37104        0.301232 
        5.51353         3.34268         0.29905 
        5.52921         3.31722        0.296887 
        5.54495         3.29671         0.29474 
        5.56066         3.27886        0.292615 
        5.57637         3.26219        0.290513 
        5.59207         3.24037        0.288432 
        5.60778         3.22306        0.286371 
        5.62346         3.19645        0.284334 
        5.63916         3.18055        0.282314 
        5.65487         3.15961        0.280312 
         5.6706          3.1458        0.278328 
        5.68633         3.12523        0.276362 
        5.70203         3.10864        0.274419 
        5.71773         3.09108        0.272496 
        5.73344         3.07347        0.270589 
        5.74916         3.05335        0.268699 
        5.76486         3.03127         0.26683 
        5.78054         3.01459        0.264981 
        5.79626         2.99851        0.263145 
          5.812         2.98343        0.261324 
         5.8277         2.96987        0.259526 
        5.84339         2.94552        0.257745 
        5.85911         2.93188        0.255977 
        5.87484         2.91719        0.254225 
        5.89053         2.88762        0.252494 
        5.90623         2.87561        0.250778 
        5.92195         2.86441        0.249075 
        5.93767          2.8442        0.247389 
        5.95336         2.83062        0.245721 
        5.96905         2.81157        0.244069 
        5.98476         2.80191         0.24243 
        6.00048         2.77819        0.240806 
        6.01617         2.76636        0.239198 
        6.03185         2.74599        0.237607 
        6.04756         2.72739        0.236027 
        6.06331          2.7172        0.234458 
        6.07903         2.70112        0.232906 
        6.09473          2.6857         0.23137 
        6.11044         2.66766        0.229846 
        6.12616          2.6584        0.228337 
        6.14186         2.63391        0.226842 
        6.15755         2.62525        0.225361 
        6.17326         2.61299        0.223891 
        6.18898         2.59698        0.222435 
        6.20467         2.58315        0.220993 
        6.22036         2.56753        0.219565 
         6.2361         2.55134        0.218146 
         6.2518         2.53767        0.216741 
        6.26748          2.5276        0.215352 
        6.28319          2.5076        0.213971 
        6.29893         2.49987        0.212601 
        6.31463         2.48406        0.211245 
        6.33033         2.47167        0.209901 
        6.34604          2.4593        0.208569 
        6.36177         2.44623        0.207246 
        6.37747         2.43138        0.205938 
