# k  (h/Mpc)    Pcb(k)  (Mpc/h)^3    Pcb_linear(k) (Mpc/h)^3   ShotnoiseSubtracted = true
      0.0200456         8961.87         9072.47 
      0.0350414         7266.08         7113.74 
      0.0492313         5567.48         5636.27 
      0.0637834         4422.58         4583.19 
      0.0800726         3348.65         3462.16 
       0.096163         2780.69         2723.21 
       0.111083         2376.63         2305.19 
       0.126058         1896.83         1916.27 
       0.142273         1584.91         1559.34 
       0.158546         1366.72         1328.38 
        0.17375         1217.25         1155.73 
       0.188953         1090.38         993.577 
       0.204907         921.945         860.083 
       0.220756         840.259         760.177 
        0.23588         752.852         675.202 
         0.2514         670.894         598.283 
       0.267535         645.071         533.566 
       0.283568          566.51         479.456 
       0.299022         540.094         432.962 
       0.314451         539.433         392.549 
       0.330372          464.38         356.922 
       0.346141         431.759         325.829 
       0.361624         411.769         298.628 
       0.377134         383.085         274.572 
       0.392932         372.998         252.895 
       0.408854         353.555          233.35 
       0.424564         340.749         216.038 
       0.440253         307.929         200.542 
       0.455999         294.377         186.531 
       0.471626         292.127          173.93 
        0.48727         278.849         162.478 
       0.502856         255.364           152.1 
       0.518488         255.452         142.602 
       0.534347         237.678         133.792 
       0.550082         232.309         125.787 
       0.565732          229.88         118.477 
       0.581496         215.219         111.702 
       0.597222         210.495         105.471 
       0.612804         204.613         99.7679 
       0.628434         197.171         94.4729 
       0.644267         188.197         89.5021 
       0.660051         183.665          84.904 
       0.675724         182.523         80.6587 
       0.691403         176.966         76.7032 
       0.707174         171.405         72.9931 
       0.722871         168.639          69.545 
        0.73838         166.687         66.3578 
       0.754018         156.489         63.3471 
       0.769845         156.119          60.491 
        0.78569         152.137         57.8088 
       0.801365         148.159         55.3159 
       0.817031         143.642         52.9721 
       0.832809         141.257         50.7494 
       0.848511         137.977         48.6646 
       0.864097         135.359         46.7116 
       0.879701         133.667         44.8642 
       0.895507         129.389         43.0952 
       0.911279         126.803         41.4256 
        0.92691         123.834         39.8587 
       0.942635         121.712         38.3645 
       0.958396         119.985          36.944 
       0.974128         117.335         35.5984 
       0.989692         114.873         34.3334 
        1.00528          113.15         33.1283 
        1.02113         110.243         31.9624 
        1.03692         109.833         30.8573 
        1.05264         108.179         29.8097 
        1.06832         104.658         28.8127 
        1.08405         103.991         27.8588 
        1.09979         103.038         26.9478 
        1.11537         100.168         26.0867 
        1.13105         99.0752         25.2582 
        1.14679         97.0986         24.4627 
        1.16256         95.1975         23.7001 
        1.17828         94.2169         22.9726 
        1.19395         91.5677         22.2782 
         1.2097         91.7166         21.6091 
        1.22537         89.3825         20.9708 
          1.241         89.0123         20.3604 
        1.25666         85.9429         19.7727 
        1.27241         85.4292         19.2056 
        1.28819         84.6575         18.6599 
        1.30392         82.9557          18.137 
        1.31957          82.251         17.6366 
        1.33529         81.0218         17.1533 
        1.35108         80.3317         16.6862 
        1.36674         79.0984         16.2399 
         1.3824         78.1246         15.8104 
        1.39811         76.2886         15.3951 
        1.41389         75.2718         14.9931 
        1.42964         74.4627         14.6062 
        1.44531         73.5096         14.2349 
        1.46101         72.6975         13.8757 
        1.47667         71.7742         13.5301 
        1.49229         70.8644         13.1972 
        1.50793         69.9404         12.8751 
        1.52367         69.3124         12.5617 
        1.53953         68.0618         12.2567 
        1.55526         67.1512         11.9643 
        1.57092         66.7688         11.6827 
        1.58662         65.6792         11.4095 
        1.60235         64.8045         11.1445 
        1.61809         63.8229         10.8878 
        1.63369         63.0385         10.6415 
        1.64941         62.6349         10.4011 
        1.66519         61.2449         10.1673 
        1.68085         60.9308         9.94231 
        1.69652         59.4921          9.7241 
        1.71228         59.4071         9.51121 
        1.72806         58.5057         9.30454 
        1.74368         57.7861         9.10611 
        1.75933         57.2287         8.91307 
        1.77505         56.7697         8.72474 
        1.79081         55.7082         8.54153 
         1.8065         55.2989         8.36437 
        1.82218         53.8051         8.19241 
        1.83797         53.5726         8.02411 
        1.85367         53.1147         7.86148 
        1.86928         52.6879         7.70434 
        1.88497         51.5966         7.55065 
        1.90073         50.9858         7.40059 
        1.91647         50.6277         7.25475 
        1.93218         50.4723         7.11316 
        1.94787         49.5537         6.97556 
        1.96363         48.6452         6.84106 
        1.97935         48.3313         6.71039 
        1.99499         47.7041         6.58387 
        2.01064         47.2686         6.46044 
         2.0264         46.8497         6.33941 
        2.04216         46.0746         6.22154 
        2.05781          45.488         6.10741 
        2.07353         44.8571         5.99575 
        2.08928           44.76         5.88663 
        2.10499         44.1892         5.78053 
        2.12065         43.6491         5.67737 
        2.13633         43.3288         5.57664 
        2.15211         42.5642          5.4777 
        2.16785         41.9537         5.38145 
        2.18349           41.47         5.28812 
        2.19916          41.106          5.1968 
        2.21489         40.7386         5.10734 
        2.23063         40.2378         5.01993 
         2.2463         39.9295         4.93496 
        2.26194         39.3501         4.85218 
        2.27765         38.9015         4.77087 
        2.29341         38.4818         4.69121 
        2.30914         38.0904         4.61354 
        2.32486          37.423         4.53767 
        2.34061         37.2769         4.46338 
        2.35635         36.8183         4.39083 
        2.37203         36.4798         4.32014 
        2.38768         36.1316         4.25116 
        2.40339         35.8997         4.18343 
        2.41914         35.3716         4.11702 
        2.43483         34.9765         4.05229 
         2.4505         34.5979         3.98906 
        2.46622         34.2307         3.92697 
        2.48195         33.9265         3.86619 
        2.49759         33.3894         3.80703 
        2.51328         33.1415         3.74895 
        2.52906         32.8634         3.69172 
        2.54479         32.4582         3.63589 
        2.56049         32.2958         3.58133 
        2.57618          31.835         3.52794 
        2.59189         31.3728         3.47555 
        2.60758         31.1709         3.42432 
        2.62325         30.8649         3.37417 
        2.63898         30.6814         3.32486 
        2.65468         30.1655         3.27664 
        2.67044         29.9272         3.22917 
        2.68618         29.7157         3.18275 
        2.70184         29.2881         3.13743 
        2.71755         29.0773         3.09288 
        2.73329         28.6903         3.04912 
        2.74897         28.3909         3.00636 
        2.76462          28.178         2.96451 
        2.78034         27.8499         2.92328 
        2.79607         27.5751          2.8828 
        2.81179         27.3683         2.84313 
        2.82749         27.0185         2.80425 
        2.84321         26.8378         2.76605 
        2.85893         26.5867         2.72858 
        2.87462         26.2332         2.69187 
        2.89033         26.0223          2.6558 
        2.90605         25.7543         2.62035 
        2.92176         25.5293         2.58558 
        2.93747         25.2463         2.55145 
        2.95318         25.0986         2.51793 
        2.96891         24.8013           2.485 
        2.98456         24.5293         2.45281 
        3.00023         24.2507         2.42113 
        3.01596         23.9599         2.38992 
        3.03164         23.7826         2.35935 
        3.04738         23.5979         2.32922 
         3.0631         23.3686         2.29963 
        3.07883         23.0921         2.27056 
        3.09456         22.8696         2.24199 
        3.11026         22.6193         2.21395 
        3.12596         22.3518          2.1864 
        3.14163         22.1445         2.15938 
        3.15734          22.005         2.13276 
        3.17308         21.8001         2.10652 
        3.18879         21.5638         2.08079 
        3.20447         21.3652         2.05553 
         3.2202         21.1233         2.03061 
         3.2359         20.9763         2.00615 
        3.25157         20.7483         1.98215 
        3.26729         20.5761         1.95847 
        3.28304         20.3715         1.93513 
        3.29877         20.1634          1.9122 
        3.31446         19.9663          1.8897 
        3.33014         19.7745         1.86757 
        3.34585         19.6768         1.84577 
        3.36158         19.3944         1.82428 
        3.37727         19.2657          1.8032 
        3.39294         19.1303         1.78247 
        3.40867         18.9101           1.762 
        3.42439         18.7419         1.74185 
        3.44008         18.5537         1.72206 
        3.45578         18.3691         1.70257 
        3.47153         18.1889         1.68333 
        3.48724         18.0368         1.66443 
        3.50292         17.8919         1.64585 
        3.51859         17.6976         1.62757 
        3.53431         17.5776         1.60952 
        3.55007         17.3687         1.59169 
        3.56577         17.2441          1.5742 
        3.58146         17.0548         1.55698 
        3.59719         16.9498         1.53998 
        3.61292         16.7521         1.52324 
        3.62859         16.5656         1.50681 
        3.64429         16.4228         1.49059 
        3.66003         16.3411         1.47456 
        3.67578         16.2194         1.45878 
        3.69146         16.0069         1.44328 
        3.70712         15.8797         1.42804 
        3.72284         15.7121         1.41296 
        3.73853          15.648         1.39812 
        3.75422          15.422         1.38349 
        3.76993         15.3372         1.36906 
        3.78564         15.1567         1.35484 
        3.80137         15.0476          1.3408 
        3.81707         14.8603         1.32699 
        3.83279         14.8092         1.31336 
        3.84853         14.6318          1.2999 
        3.86424         14.4769         1.28665 
        3.87992         14.4055         1.27361 
        3.89561         14.2723         1.26075 
        3.91134         14.1652         1.24804 
        3.92704         14.0402         1.23552 
        3.94273         13.9054         1.22319 
        3.95845         13.7647           1.211 
        3.97418         13.6393         1.19897 
        3.98988         13.5372         1.18712 
        4.00554         13.4284         1.17547 
        4.02125         13.2843         1.16394 
        4.03698         13.2127         1.15254 
        4.05268         13.0812         1.14133 
        4.06839         12.9522         1.13025 
         4.0841         12.8472         1.11933 
        4.09983         12.6878         1.10853 
        4.11555         12.6027         1.09788 
        4.13124         12.4863          1.0874 
        4.14693         12.3955         1.07705 
        4.16266         12.2951         1.06681 
        4.17839         12.1987          1.0567 
        4.19408          12.091         1.04676 
        4.20977         11.9769         1.03693 
        4.22551         11.8924         1.02721 
        4.24123         11.8022         1.01762 
        4.25691         11.7033         1.00818 
        4.27259         11.5706         0.99886 
        4.28831         11.5053        0.989637 
        4.30404          11.418        0.980521 
        4.31974         11.3083        0.971541 
        4.33543          11.183        0.962677 
        4.35116          11.142        0.953903 
        4.36688         11.0034        0.945241 
        4.38255         10.8996         0.93672 
        4.39825         10.8327        0.928284 
        4.41398         10.7279        0.919936 
         4.4297         10.6638        0.911699 
        4.44541         10.5707        0.903565 
        4.46111         10.4647        0.895536 
        4.47683         10.3662        0.887599 
        4.49251         10.2901        0.879774 
        4.50819         10.2065        0.872045 
         4.5239         10.1605        0.864399 
        4.53962          10.054        0.856834 
        4.55535         9.96572        0.849356 
        4.57106         9.90616        0.841978 
        4.58678         9.81764        0.834686 
         4.6025         9.74378        0.827479 
        4.61821         9.66181        0.820358 
        4.63391         9.57397         0.81333 
         4.6496         9.50732        0.806387 
        4.66532         9.42866        0.799514 
        4.68103         9.33328        0.792725 
        4.69673         9.27164        0.786021 
        4.71241         9.17052        0.779401 
        4.72811         9.12738        0.772846 
        4.74384         9.04783        0.766358 
        4.75955         8.96493        0.759955 
        4.77525         8.90323        0.753628 
        4.79096         8.84257        0.747365 
        4.80669         8.77154        0.741171 
         4.8224         8.68475        0.735054 
        4.83809         8.63715        0.729012 
        4.85379         8.56958        0.723035 
         4.8695         8.49302         0.71712 
        4.88521          8.4191        0.711273 
        4.90093         8.37754        0.705491 
        4.91663         8.30542        0.699778 
        4.93234         8.24007        0.694122 
        4.94807         8.17697        0.688525 
        4.96377         8.12262           0.683 
        4.97943         8.06069        0.677547 
        4.99514         7.99005         0.67214 
        5.01086         7.94482        0.666788 
        5.02654         7.86633        0.661507 
        5.04227         7.78419        0.656268 
          5.058         7.73998        0.651084 
        5.07371         7.69437        0.645966 
        5.08942          7.6184        0.640901 
        5.10513         7.56759        0.635891 
        5.12084         7.51415        0.630932 
        5.13656         7.47687        0.626026 
        5.15225          7.3808        0.621181 
        5.16796         7.35058         0.61638 
        5.18369         7.28984        0.611624 
         5.1994         7.24675        0.606928 
        5.21509         7.18635        0.602285 
        5.23079         7.11269        0.597685 
        5.24649         7.08486        0.593137 
        5.26217         7.03233        0.588639 
        5.27788         6.97773        0.584182 
        5.29359         6.92659         0.57977 
        5.30933         6.85554        0.575397 
        5.32504         6.81706        0.571076 
        5.34073         6.78062        0.566805 
        5.35646         6.71045        0.562569 
        5.37218         6.67941        0.558375 
        5.38789         6.61729         0.55423 
        5.40357         6.56857        0.550133 
        5.41929         6.52961        0.546067 
        5.43502         6.49024        0.542043 
         5.4507         6.44482        0.538068 
        5.46639         6.37999        0.534133 
        5.48212         6.34322        0.530228 
        5.49786         6.29894        0.526357 
        5.51353         6.25399        0.522544 
        5.52921         6.20757        0.518765 
        5.54495         6.15902        0.515012 
        5.56066         6.12022        0.511301 
        5.57637         6.08149        0.507626 
        5.59207         6.02999        0.503991 
        5.60778         5.99064         0.50039 
        5.62346           5.954        0.496829 
        5.63916         5.91291          0.4933 
        5.65487         5.87247        0.489803 
         5.6706         5.82781        0.486336 
        5.68633         5.79219        0.482901 
        5.70203         5.75984        0.479506 
        5.71773         5.70636        0.476144 
        5.73344         5.67035        0.472813 
        5.74916         5.63331        0.469511 
        5.76486         5.59391        0.466244 
        5.78054         5.55156        0.463014 
        5.79626         5.51896        0.459805 
          5.812         5.46762        0.456624 
         5.8277          5.4369        0.453482 
        5.84339         5.39719        0.450369 
        5.85911         5.35654         0.44728 
        5.87484         5.32537         0.44422 
        5.89053         5.28523        0.441195 
        5.90623         5.26436        0.438196 
        5.92195         5.22891        0.435221 
        5.93767         5.18222        0.432274 
        5.95336         5.15586         0.42936 
        5.96905         5.11572        0.426473 
        5.98476         5.08044        0.423609 
        6.00048         5.04921        0.420771 
        6.01617         5.01668        0.417962 
        6.03185         4.98338        0.415182 
        6.04756         4.95638        0.412421 
        6.06331         4.91705        0.409679 
        6.07903         4.86934        0.406968 
        6.09473         4.84541        0.404284 
        6.11044         4.82836        0.401621 
        6.12616         4.77923        0.398983 
        6.14186         4.75373        0.396371 
        6.15755         4.72471        0.393783 
        6.17326          4.6995        0.391216 
        6.18898          4.6673        0.388671 
        6.20467         4.64202        0.386152 
        6.22036         4.60099        0.383656 
         6.2361         4.57584        0.381176 
         6.2518         4.55162        0.378721 
        6.26748         4.52296        0.376294 
        6.28319          4.4935        0.373881 
        6.29893         4.45498        0.371487 
        6.31463         4.42957        0.369118 
        6.33033         4.40957        0.366771 
        6.34604         4.38213        0.364442 
        6.36177         4.34761        0.362131 
        6.37747         4.32297        0.359845 
