# k  (h/Mpc)    Pcb(k)  (Mpc/h)^3    Pcb_linear(k) (Mpc/h)^3   ShotnoiseSubtracted = true
      0.0200456         1176.64         1189.38 
      0.0350414         942.653         932.595 
      0.0492313         738.614         738.902 
      0.0637834          593.89         600.845 
      0.0800726         450.761         453.881 
       0.096163         361.432         357.006 
       0.111083         306.752         302.205 
       0.126058         250.298         251.219 
       0.142273         204.366         204.426 
       0.158546         175.037         174.147 
        0.17375         153.914         151.514 
       0.188953         132.482         130.256 
       0.204907         111.838         112.755 
       0.220756         101.002         99.6574 
        0.23588         89.7469         88.5174 
         0.2514         79.8865         78.4335 
       0.267535         72.3965         69.9493 
       0.283568         64.5865         62.8555 
       0.299022         58.9673         56.7603 
       0.314451         54.8798         51.4622 
       0.330372         49.0992         46.7917 
       0.346141         44.9548         42.7154 
       0.361624         41.2531         39.1495 
       0.377134         37.7925         35.9958 
       0.392932          36.211          33.154 
       0.408854         32.8001         30.5916 
       0.424564         31.2874         28.3221 
       0.440253         28.6164         26.2906 
       0.455999         26.1854         24.4538 
       0.471626         24.6193         22.8018 
        0.48727          23.784         21.3005 
       0.502856         22.2698           19.94 
       0.518488          20.609         18.6948 
       0.534347          19.324         17.5398 
       0.550082         18.5566         16.4904 
       0.565732         17.7708          15.532 
       0.581496         16.7306         14.6438 
       0.597222         15.7499          13.827 
       0.612804         14.9056         13.0793 
       0.628434         14.4665         12.3852 
       0.644267         13.7402         11.7335 
       0.660051         13.0139         11.1307 
       0.675724         12.3289         10.5742 
       0.691403         11.9475         10.0556 
       0.707174         11.4014         9.56922 
       0.722871         11.0924         9.11718 
        0.73838         10.3942         8.69935 
       0.754018         9.93056         8.30466 
       0.769845          9.5037         7.93023 
        0.78569         9.25762          7.5786 
       0.801365         8.85236         7.25179 
       0.817031         8.56822         6.94451 
       0.832809         8.16444         6.65313 
       0.848511         7.94377         6.37982 
       0.864097         7.65209         6.12378 
       0.879701         7.47053         5.88159 
       0.895507         7.16934         5.64968 
       0.911279         6.89655          5.4308 
        0.92691         6.70561         5.22538 
       0.942635         6.46017         5.02949 
       0.958396         6.24039         4.84327 
       0.974128         6.09034         4.66686 
       0.989692         5.81447         4.50102 
        1.00528         5.71995         4.34304 
        1.02113         5.54537          4.1902 
        1.03692         5.39551         4.04532 
        1.05264         5.20063         3.90799 
        1.06832         5.06973         3.77728 
        1.08405         4.93756         3.65223 
        1.09979         4.81421         3.53279 
        1.11537         4.67824          3.4199 
        1.13105         4.53918          3.3113 
        1.14679          4.4264         3.20701 
        1.16256         4.28989         3.10703 
        1.17828          4.2338         3.01165 
        1.19395          4.0828         2.92062 
         1.2097         3.96931         2.83291 
        1.22537         3.85308         2.74923 
          1.241         3.77726         2.66919 
        1.25666         3.73084         2.59216 
        1.27241         3.64558         2.51781 
        1.28819         3.50427         2.44627 
        1.30392         3.42543         2.37772 
        1.31957         3.37942         2.31211 
        1.33529         3.26337         2.24875 
        1.35108          3.2002         2.18752 
        1.36674         3.12264         2.12901 
         1.3824         3.08579         2.07271 
        1.39811         3.00101         2.01826 
        1.41389         2.92948         1.96556 
        1.42964         2.87756         1.91484 
        1.44531         2.82648         1.86616 
        1.46101         2.76323         1.81908 
        1.47667         2.71084         1.77376 
        1.49229          2.6241         1.73012 
        1.50793         2.56703          1.6879 
        1.52367         2.52484         1.64682 
        1.53953         2.46376         1.60683 
        1.55526         2.46696          1.5685 
        1.57092          2.3997         1.53157 
        1.58662         2.37447         1.49576 
        1.60235         2.29752         1.46102 
        1.61809         2.26397         1.42737 
        1.63369         2.21864         1.39508 
        1.64941         2.18257         1.36356 
        1.66519         2.15106         1.33291 
        1.68085         2.10128         1.30341 
        1.69652         2.06634         1.27481 
        1.71228         2.02641          1.2469 
        1.72806         1.99753          1.2198 
        1.74368         1.96511         1.19379 
        1.75933          1.9356         1.16848 
        1.77505         1.90075         1.14379 
        1.79081         1.86111         1.11977 
         1.8065         1.83835         1.09655 
        1.82218         1.79871         1.07401 
        1.83797         1.76901         1.05194 
        1.85367         1.74412         1.03062 
        1.86928         1.71808         1.01002 
        1.88497         1.68239        0.989872 
        1.90073         1.67028          0.9702 
        1.91647         1.63139        0.951081 
        1.93218          1.6118        0.932518 
        1.94787          1.5873        0.914479 
        1.96363         1.56651        0.896846 
        1.97935         1.53849        0.879716 
        1.99499          1.5167         0.86313 
        2.01064         1.49637        0.846949 
         2.0264         1.46722        0.831081 
        2.04216         1.45384        0.815629 
        2.05781         1.42561        0.800667 
        2.07353         1.41561        0.786028 
        2.08928          1.3908        0.771724 
        2.10499          1.3692        0.757814 
        2.12065         1.35031         0.74429 
        2.13633         1.33305        0.731084 
        2.15211         1.30953        0.718114 
        2.16785         1.29694        0.705495 
        2.18349         1.27436         0.69326 
        2.19916         1.26355        0.681288 
        2.21489         1.24675        0.669561 
        2.23063         1.22156        0.658101 
         2.2463         1.20633        0.646962 
        2.26194         1.19596        0.636109 
        2.27765         1.17526        0.625449 
        2.29341         1.16305        0.615007 
        2.30914         1.14149        0.604824 
        2.32486          1.1344        0.594878 
        2.34061         1.12076        0.585139 
        2.35635         1.10511        0.575627 
        2.37203         1.08958         0.56636 
        2.38768         1.07838        0.557316 
        2.40339         1.06912        0.548438 
        2.41914         1.05443        0.539732 
        2.43483         1.04112        0.531246 
         2.4505         1.02622        0.522957 
        2.46622         1.01344        0.514816 
        2.48195         1.00239        0.506849 
        2.49759        0.990286        0.499092 
        2.51328        0.977366        0.491478 
        2.52906        0.970105        0.483975 
        2.54479        0.954321        0.476657 
        2.56049         0.94573        0.469504 
        2.57618         0.93444        0.462504 
        2.59189        0.924752        0.455637 
        2.60758        0.914741         0.44892 
        2.62325        0.902816        0.442346 
        2.63898        0.894553        0.435882 
        2.65468        0.880902         0.42956 
        2.67044        0.875655        0.423337 
        2.68618        0.868013        0.417251 
        2.70184        0.853903        0.411309 
        2.71755        0.848531        0.405469 
        2.73329         0.83906        0.399733 
        2.74897        0.828147        0.394126 
        2.76462        0.818213         0.38864 
        2.78034        0.813057        0.383235 
        2.79607        0.804267        0.377928 
        2.81179        0.793564        0.372727 
        2.82749        0.786358         0.36763 
        2.84321        0.777981        0.362623 
        2.85893        0.768252        0.357711 
        2.87462        0.761342        0.352897 
        2.89033        0.757355        0.348169 
        2.90605        0.750249        0.343522 
        2.92176        0.741481        0.338963 
        2.93747        0.734462        0.334489 
        2.95318        0.725935        0.330095 
        2.96891        0.722851        0.325778 
        2.98456        0.709735        0.321557 
        3.00023        0.704895        0.317405 
        3.01596        0.699644        0.313313 
        3.03164        0.693375        0.309305 
        3.04738        0.685729        0.305356 
         3.0631        0.677455        0.301477 
        3.07883        0.673764        0.297665 
        3.09456        0.668135        0.293919 
        3.11026        0.660963        0.290244 
        3.12596        0.655068        0.286632 
        3.14163        0.653239         0.28309 
        3.15734        0.645333          0.2796 
        3.17308        0.637838         0.27616 
        3.18879        0.635787        0.272787 
        3.20447        0.627752        0.269475 
         3.2202        0.619973        0.266209 
         3.2359        0.616902        0.263002 
        3.25157         0.60889        0.259855 
        3.26729        0.607083        0.256751 
        3.28304        0.601775        0.253691 
        3.29877        0.595713        0.250685 
        3.31446        0.593564        0.247735 
        3.33014        0.585015        0.244834 
        3.34585        0.581511        0.241976 
        3.36158        0.576379        0.239159 
        3.37727        0.573732        0.236395 
        3.39294        0.569635        0.233678 
        3.40867        0.563477        0.230994 
        3.42439        0.559485        0.228353 
        3.44008        0.554597        0.225759 
        3.45578        0.550034        0.223203 
        3.47153        0.547287        0.220681 
        3.48724        0.542545        0.218202 
        3.50292        0.538001        0.215768 
        3.51859        0.535274        0.213371 
        3.53431        0.530449        0.211004 
        3.55007        0.526452        0.208666 
        3.56577        0.522959        0.206374 
        3.58146        0.519455        0.204116 
        3.59719        0.514859        0.201888 
        3.61292        0.510615        0.199693 
        3.62859        0.507711        0.197539 
        3.64429        0.503366        0.195413 
        3.66003        0.499901        0.193312 
        3.67578        0.496899        0.191242 
        3.69146        0.492781        0.189211 
        3.70712        0.491148        0.187212 
        3.72284        0.487641        0.185235 
        3.73853        0.483604         0.18329 
        3.75422        0.479914        0.181373 
        3.76993        0.476079        0.179481 
        3.78564        0.472461        0.177616 
        3.80137        0.470241        0.175776 
        3.81707        0.467075        0.173965 
        3.83279        0.463857        0.172178 
        3.84853        0.459604        0.170413 
        3.86424        0.457664        0.168677 
        3.87992        0.455158        0.166967 
        3.89561         0.45158        0.165281 
        3.91134        0.447941        0.163615 
        3.92704        0.444502        0.161974 
        3.94273        0.442743        0.160357 
        3.95845        0.440871        0.158759 
        3.97418         0.43847        0.157182 
        3.98988        0.434291        0.155629 
        4.00554         0.43006        0.154101 
        4.02125        0.427695        0.152589 
        4.03698        0.423991        0.151096 
        4.05268        0.418289        0.149625 
        4.06839        0.416802        0.148173 
         4.0841        0.412255        0.146741 
        4.09983        0.409212        0.145326 
        4.11555        0.406291         0.14393 
        4.13124        0.403326        0.142556 
        4.14693        0.400247        0.141198 
        4.16266        0.395166        0.139856 
        4.17839        0.392665        0.138532 
        4.19408        0.390495        0.137227 
        4.20977        0.387494        0.135939 
        4.22551        0.384425        0.134665 
        4.24123        0.381387        0.133408 
        4.25691        0.379256         0.13217 
        4.27259        0.375868        0.130948 
        4.28831        0.374342        0.129739 
        4.30404        0.371349        0.128544 
        4.31974         0.36893        0.127367 
        4.33543        0.366271        0.126205 
        4.35116        0.364302        0.125054 
        4.36688        0.361927        0.123919 
        4.38255        0.359227        0.122802 
        4.39825        0.357552        0.121696 
        4.41398        0.355382        0.120601 
         4.4297        0.353885        0.119522 
        4.44541         0.35096        0.118455 
        4.46111        0.349935        0.117403 
        4.47683        0.349143        0.116362 
        4.49251        0.346066        0.115336 
        4.50819        0.345158        0.114323 
         4.5239        0.343364        0.113321 
        4.53962        0.341107        0.112329 
        4.55535        0.340344        0.111349 
        4.57106        0.339702        0.110381 
        4.58678        0.336726        0.109425 
         4.6025        0.336279        0.108481 
        4.61821        0.335283        0.107547 
        4.63391        0.334378        0.106626 
         4.6496        0.332622        0.105715 
        4.66532        0.331713        0.104814 
        4.68103        0.329986        0.103924 
        4.69673        0.329361        0.103045 
        4.71241        0.328279        0.102178 
        4.72811        0.328365        0.101318 
        4.74384        0.327224        0.100468 
        4.75955        0.326059       0.0996283 
        4.77525         0.32522       0.0987988 
        4.79096        0.325058       0.0979779 
        4.80669        0.324293       0.0971658 
         4.8224         0.32335       0.0963639 
        4.83809        0.323067       0.0955718 
        4.85379        0.322079       0.0947882 
         4.8695        0.322715       0.0940127 
        4.88521        0.322142       0.0932462 
        4.90093        0.321942       0.0924882 
        4.91663        0.321303       0.0917392 
        4.93234        0.320446       0.0909977 
        4.94807        0.320569        0.090264 
        4.96377        0.320541       0.0895397 
        4.97943        0.320542       0.0888248 
        4.99514         0.31945        0.088116 
        5.01086        0.321346       0.0874143 
        5.02654        0.320309        0.086722 
        5.04227        0.320082       0.0860353 
          5.058          0.3214       0.0853556 
        5.07371        0.320403       0.0846846 
        5.08942        0.322299       0.0840207 
        5.10513        0.321953       0.0833638 
        5.12084        0.321596       0.0827137 
        5.13656        0.321485       0.0820706 
        5.15225        0.322982       0.0814354 
        5.16796        0.323244       0.0808059 
        5.18369        0.323056       0.0801825 
         5.1994         0.32504       0.0795668 
        5.21509        0.324372       0.0789582 
        5.23079        0.325022       0.0783551 
        5.24649        0.325599       0.0777589 
        5.26217        0.326226       0.0771692 
        5.27788        0.327926       0.0765849 
        5.29359        0.328488       0.0760065 
        5.30933        0.328628       0.0754332 
        5.32504        0.329753       0.0748668 
        5.34073        0.331327       0.0743068 
        5.35646        0.332004       0.0737514 
        5.37218        0.333202       0.0732016 
        5.38789        0.332736       0.0726583 
        5.40357        0.335333       0.0721211 
        5.41929        0.335959       0.0715881 
        5.43502        0.336832       0.0710605 
         5.4507        0.338238       0.0705395 
        5.46639        0.338788       0.0700236 
        5.48212        0.339911       0.0695116 
        5.49786        0.340953       0.0690042 
        5.51353        0.343296       0.0685043 
        5.52921        0.343971       0.0680089 
        5.54495        0.345875       0.0675169 
        5.56066        0.345997       0.0670303 
        5.57637        0.347242       0.0665486 
        5.59207        0.349808        0.066072 
        5.60778        0.350097          0.0656 
        5.62346        0.353011       0.0651332 
        5.63916        0.353576       0.0646705 
        5.65487        0.354209        0.064212 
         5.6706        0.355796       0.0637574 
        5.68633        0.358293       0.0633071 
        5.70203         0.36103       0.0628621 
        5.71773        0.360809       0.0624214 
        5.73344        0.363173       0.0619847 
        5.74916        0.364998       0.0615518 
        5.76486        0.366555       0.0611235 
        5.78054        0.367525       0.0607001 
        5.79626        0.369151       0.0602794 
          5.812         0.37203       0.0598623 
         5.8277        0.373301       0.0594504 
        5.84339          0.3741       0.0590423 
        5.85911        0.377538       0.0586373 
        5.87484        0.378159       0.0582362 
        5.89053        0.380489       0.0578396 
        5.90623        0.381413       0.0574465 
        5.92195        0.383616       0.0570564 
        5.93767         0.38539       0.0566701 
        5.95336        0.386802       0.0562881 
        5.96905        0.388394       0.0559097 
        5.98476        0.390735       0.0555342 
        6.00048        0.391372       0.0551621 
        6.01617         0.39442       0.0547938 
        6.03185        0.395077       0.0544294 
        6.04756         0.39711       0.0540674 
        6.06331        0.399753        0.053708 
        6.07903         0.40139       0.0533525 
        6.09473        0.402758       0.0530006 
        6.11044        0.403615       0.0526516 
        6.12616        0.406223       0.0523058 
        6.14186        0.406969       0.0519634 
        6.15755        0.410639        0.051624 
        6.17326        0.412002       0.0512875 
        6.18898        0.412821       0.0509538 
        6.20467        0.414649       0.0506236 
        6.22036        0.417259       0.0502965 
         6.2361        0.416831       0.0499713 
         6.2518        0.420772       0.0496495 
        6.26748        0.421456       0.0493312 
        6.28319        0.424702       0.0490149 
        6.29893        0.426953       0.0487011 
        6.31463        0.427065       0.0483905 
        6.33033        0.429391       0.0480828 
        6.34604        0.431415       0.0477775 
        6.36177        0.432113       0.0474745 
        6.37747        0.433454       0.0471748 
