# k  (h/Mpc)    Pcb(k)  (Mpc/h)^3    Pcb_linear(k) (Mpc/h)^3   ShotnoiseSubtracted = true
      0.0200456         3061.72          3095.4 
      0.0350414         2463.79         2427.11 
      0.0492313         1917.02         1923.02 
      0.0637834         1534.03         1563.72 
      0.0800726         1163.56         1181.24 
       0.096163          944.96          929.12 
       0.111083         804.794         786.498 
       0.126058         650.361         653.804 
       0.142273          533.89         532.025 
       0.158546         459.597         453.223 
        0.17375         406.008         394.319 
       0.188953         353.018         338.994 
       0.204907         296.337         293.448 
       0.220756         269.857         259.362 
        0.23588         240.226         230.369 
         0.2514         213.863         204.126 
       0.267535         198.166         182.045 
       0.283568         175.489         163.583 
       0.299022             163          147.72 
       0.314451         154.655         133.932 
       0.330372         136.408         121.777 
       0.346141         125.691         111.168 
       0.361624         116.876         101.888 
       0.377134         106.924         93.6802 
       0.392932         103.669         86.2843 
       0.408854         95.6638         79.6157 
       0.424564         91.4668          73.709 
       0.440253         83.4352         68.4221 
       0.455999         76.7964         63.6418 
       0.471626         73.0859         59.3424 
        0.48727         71.1776         55.4352 
       0.502856         66.0566         51.8944 
       0.518488         62.7049         48.6539 
       0.534347          59.251         45.6478 
       0.550082         57.1086         42.9167 
       0.565732         55.1851         40.4226 
       0.581496         51.5776          38.111 
       0.597222         49.1678         35.9852 
       0.612804         47.3156         34.0394 
       0.628434         46.3363         32.2328 
       0.644267         43.8819         30.5368 
       0.660051         41.8937          28.968 
       0.675724         40.2382         27.5196 
       0.691403         39.5399           26.17 
       0.707174         38.1582         24.9042 
       0.722871         36.8507         23.7278 
        0.73838         35.0888         22.6403 
       0.754018         33.3955         21.6131 
       0.769845         32.7365         20.6387 
        0.78569         31.5971         19.7235 
       0.801365         30.6459          18.873 
       0.817031         29.5233         18.0733 
       0.832809         28.8746          17.315 
       0.848511          27.947         16.6037 
       0.864097         27.1903         15.9373 
       0.879701         26.7333          15.307 
       0.895507          25.729         14.7035 
       0.911279         24.8221         14.1338 
        0.92691         24.3941         13.5992 
       0.942635         23.8744         13.0894 
       0.958396         23.1711         12.6048 
       0.974128         22.5675         12.1457 
       0.989692         21.7038         11.7141 
        1.00528         21.5518         11.3029 
        1.02113         20.8779         10.9051 
        1.03692         20.4439         10.5281 
        1.05264         20.0431         10.1707 
        1.06832         19.6478         9.83049 
        1.08405         19.0848         9.50504 
        1.09979         18.7223          9.1942 
        1.11537         18.2215         8.90041 
        1.13105         17.9424         8.61775 
        1.14679         17.5057         8.34634 
        1.16256         17.2037         8.08614 
        1.17828         16.8858         7.83793 
        1.19395         16.6207         7.60101 
         1.2097         16.1408         7.37273 
        1.22537         15.8999         7.15495 
          1.241         15.5698         6.94666 
        1.25666         15.4198         6.74618 
        1.27241         15.1027         6.55269 
        1.28819         14.5345         6.36649 
        1.30392         14.6166          6.1881 
        1.31957         14.2312         6.01735 
        1.33529         14.0221         5.85245 
        1.35108         13.8139         5.69309 
        1.36674         13.4993         5.54082 
         1.3824         13.3173         5.39428 
        1.39811         13.0836         5.25257 
        1.41389         12.8519         5.11543 
        1.42964         12.6939         4.98343 
        1.44531         12.4813         4.85674 
        1.46101         12.3095          4.7342 
        1.47667         12.1074         4.61627 
        1.49229          11.841         4.50268 
        1.50793         11.7263          4.3928 
        1.52367         11.5765         4.28589 
        1.53953         11.3558         4.18183 
        1.55526         11.2103         4.08206 
        1.57092         11.1152         3.98597 
        1.58662         10.9243         3.89275 
        1.60235         10.7688         3.80235 
        1.61809         10.6488         3.71477 
        1.63369         10.4378         3.63074 
        1.64941         10.3229         3.54871 
        1.66519         10.1619         3.46893 
        1.68085          10.006         3.39217 
        1.69652         9.96025         3.31772 
        1.71228         9.82196         3.24509 
        1.72806         9.62514         3.17458 
        1.74368         9.55383         3.10687 
        1.75933          9.4516         3.04101 
        1.77505         9.27295         2.97676 
        1.79081         9.19839         2.91425 
         1.8065         9.14463         2.85381 
        1.82218         8.99913         2.79513 
        1.83797         8.86521         2.73771 
        1.85367         8.76378         2.68223 
        1.86928         8.67365         2.62861 
        1.88497          8.5678         2.57617 
        1.90073         8.45127         2.52498 
        1.91647         8.27952         2.47522 
        1.93218          8.2521         2.42691 
        1.94787         8.11949         2.37996 
        1.96363         8.05263         2.33407 
        1.97935         8.01831         2.28949 
        1.99499         7.89589         2.24632 
        2.01064         7.80228         2.20421 
         2.0264         7.70666         2.16292 
        2.04216         7.69154          2.1227 
        2.05781          7.5798         2.08376 
        2.07353           7.486         2.04566 
        2.08928         7.34655         2.00844 
        2.10499         7.30433         1.97224 
        2.12065         7.30104         1.93704 
        2.13633         7.18423         1.90267 
        2.15211         7.09384         1.86891 
        2.16785         6.99192         1.83607 
        2.18349         6.98261         1.80423 
        2.19916         6.88805         1.77307 
        2.21489         6.81758         1.74255 
        2.23063         6.76196         1.71273 
         2.2463          6.6723         1.68374 
        2.26194         6.60147         1.65549 
        2.27765         6.53722         1.62775 
        2.29341         6.44035         1.60057 
        2.30914         6.44012         1.57407 
        2.32486         6.34143         1.54819 
        2.34061         6.29817         1.52284 
        2.35635          6.2316         1.49809 
        2.37203         6.19019         1.47397 
        2.38768         6.13254         1.45043 
        2.40339         6.07242         1.42733 
        2.41914         6.01893         1.40467 
        2.43483         5.95622         1.38258 
         2.4505         5.90324         1.36101 
        2.46622         5.83449         1.33983 
        2.48195         5.82992         1.31909 
        2.49759         5.71736          1.2989 
        2.51328         5.69424         1.27909 
        2.52906         5.62934         1.25956 
        2.54479         5.58394         1.24051 
        2.56049         5.54931          1.2219 
        2.57618         5.50087         1.20368 
        2.59189          5.4988         1.18581 
        2.60758         5.41563         1.16833 
        2.62325         5.34599         1.15122 
        2.63898         5.33837          1.1344 
        2.65468         5.26587         1.11794 
        2.67044         5.23053         1.10175 
        2.68618         5.18747         1.08591 
        2.70184         5.16222         1.07045 
        2.71755         5.09284         1.05525 
        2.73329         5.05757         1.04032 
        2.74897         5.02032         1.02573 
        2.76462         4.97472         1.01145 
        2.78034         4.94345        0.997382 
        2.79607         4.89353         0.98357 
        2.81179         4.85114        0.970035 
        2.82749         4.80247         0.95677 
        2.84321         4.78443        0.943738 
        2.85893         4.74487        0.930953 
        2.87462         4.70649        0.918427 
        2.89033         4.67914         0.90612 
        2.90605           4.633        0.894028 
        2.92176         4.58294        0.882162 
        2.93747         4.55754        0.870519 
        2.95318         4.51346        0.859083 
        2.96891          4.4948        0.847847 
        2.98456         4.45477        0.836862 
        3.00023         4.43075        0.826056 
        3.01596         4.38363        0.815407 
        3.03164          4.3439        0.804977 
        3.04738         4.33126        0.794698 
         3.0631         4.30275        0.784602 
        3.07883         4.26223        0.774682 
        3.09456         4.21102        0.764934 
        3.11026         4.19526        0.755369 
        3.12596         4.17108        0.745969 
        3.14163         4.13212        0.736751 
        3.15734         4.10818        0.727667 
        3.17308         4.07505        0.718714 
        3.18879         4.05578        0.709936 
        3.20447         4.01724        0.701318 
         3.2202         3.98943        0.692816 
         3.2359         3.96207         0.68447 
        3.25157          3.9384        0.676282 
        3.26729         3.90722        0.668203 
        3.28304         3.87623         0.66024 
        3.29877          3.8533        0.652417 
        3.31446         3.83066        0.644738 
        3.33014          3.7923        0.637189 
        3.34585         3.78271         0.62975 
        3.36158         3.74554        0.622418 
        3.37727         3.72722        0.615226 
        3.39294         3.69919        0.608154 
        3.40867         3.67832        0.601168 
        3.42439         3.62897        0.594296 
        3.44008         3.61891        0.587544 
        3.45578         3.59445        0.580892 
        3.47153         3.57063        0.574329 
        3.48724         3.55401        0.567878 
        3.50292         3.52569        0.561542 
        3.51859         3.50207        0.555305 
        3.53431         3.47438        0.549144 
        3.55007         3.46951        0.543061 
        3.56577         3.42827        0.537094 
        3.58146         3.41247         0.53122 
        3.59719         3.39717        0.525419 
        3.61292         3.36806        0.519708 
        3.62859         3.35466        0.514102 
        3.64429         3.31973        0.508569 
        3.66003         3.30775          0.5031 
        3.67578         3.28859        0.497714 
        3.69146          3.2545        0.492427 
        3.70712         3.23818        0.487226 
        3.72284         3.21996        0.482081 
        3.73853         3.20381        0.477019 
        3.75422         3.17373        0.472028 
        3.76993         3.15931        0.467104 
        3.78564         3.13915        0.462252 
        3.80137         3.12035        0.457462 
        3.81707         3.10031        0.452749 
        3.83279         3.07718        0.448099 
        3.84853         3.06204        0.443506 
        3.86424         3.03965        0.438987 
        3.87992         3.01507        0.434538 
        3.89561         2.99779         0.43015 
        3.91134         2.98372        0.425814 
        3.92704         2.95874        0.421542 
        3.94273         2.93909        0.417333 
        3.95845         2.92566        0.413174 
        3.97418          2.9131        0.409071 
        3.98988         2.89417        0.405029 
        4.00554         2.87035        0.401053 
        4.02125         2.84367        0.397119 
        4.03698         2.83728        0.393231 
        4.05268         2.80949        0.389404 
        4.06839         2.79576        0.385625 
         4.0841         2.77785        0.381898 
        4.09983         2.75789        0.378215 
        4.11555         2.74091        0.374581 
        4.13124         2.72631        0.371006 
        4.14693         2.70824        0.367473 
        4.16266         2.69346        0.363979 
        4.17839          2.6732        0.360533 
        4.19408         2.65526        0.357138 
        4.20977         2.63783        0.353786 
        4.22551         2.62336        0.350469 
        4.24123         2.60393        0.347198 
        4.25691         2.59435        0.343978 
        4.27259         2.57577        0.340797 
        4.28831         2.55515         0.33765 
        4.30404         2.54474         0.33454 
        4.31974         2.53035        0.331476 
        4.33543         2.50232        0.328452 
        4.35116         2.49935        0.325458 
        4.36688          2.4797        0.322503 
        4.38255         2.46739        0.319595 
        4.39825         2.44598        0.316717 
        4.41398         2.44021        0.313869 
         4.4297          2.4184        0.311059 
        4.44541         2.40343        0.308284 
        4.46111         2.39232        0.305544 
        4.47683          2.3805        0.302836 
        4.49251         2.36761        0.300166 
        4.50819          2.3489        0.297529 
         4.5239         2.33713         0.29492 
        4.53962         2.32639        0.292339 
        4.55535         2.30782        0.289788 
        4.57106         2.29674        0.287271 
        4.58678         2.27769        0.284783 
         4.6025         2.26748        0.282324 
        4.61821         2.26544        0.279894 
        4.63391         2.24224        0.277497 
         4.6496         2.23682        0.275128 
        4.66532         2.22034        0.272783 
        4.68103         2.20354        0.270466 
        4.69673         2.19289        0.268179 
        4.71241         2.18391         0.26592 
        4.72811         2.17078        0.263684 
        4.74384         2.16283         0.26147 
        4.75955         2.14835        0.259286 
        4.77525         2.13439        0.257127 
        4.79096         2.12169         0.25499 
        4.80669         2.11363        0.252877 
         4.8224         2.10504         0.25079 
        4.83809         2.09089        0.248729 
        4.85379         2.08318        0.246689 
         4.8695         2.06709        0.244671 
        4.88521         2.06123        0.242676 
        4.90093         2.05375        0.240703 
        4.91663         2.03336        0.238754 
        4.93234         2.03182        0.236824 
        4.94807         2.01991        0.234915 
        4.96377         2.00374         0.23303 
        4.97943          1.9975        0.231169 
        4.99514         1.98103        0.229325 
        5.01086         1.97303        0.227498 
        5.02654         1.96349        0.225697 
        5.04227         1.95777        0.223909 
          5.058         1.94804        0.222141 
        5.07371         1.93942        0.220394 
        5.08942         1.92972        0.218666 
        5.10513         1.91406        0.216957 
        5.12084         1.90435        0.215265 
        5.13656           1.898        0.213591 
        5.15225         1.88425        0.211938 
        5.16796         1.87698          0.2103 
        5.18369         1.86941        0.208678 
         5.1994         1.86209        0.207075 
        5.21509         1.85269        0.205491 
        5.23079         1.84538        0.203922 
        5.24649         1.83734         0.20237 
        5.26217         1.82965        0.200835 
        5.27788         1.81502        0.199315 
        5.29359         1.80876        0.197809 
        5.30933         1.80348        0.196317 
        5.32504         1.79369        0.194843 
        5.34073         1.77919        0.193386 
        5.35646         1.77423         0.19194 
        5.37218         1.76795        0.190509 
        5.38789         1.75708        0.189095 
        5.40357         1.75142        0.187697 
        5.41929         1.74227         0.18631 
        5.43502         1.73343        0.184937 
         5.4507          1.7247        0.183581 
        5.46639         1.71976        0.182239 
        5.48212         1.71159        0.180906 
        5.49786          1.7022        0.179586 
        5.51353         1.69671        0.178285 
        5.52921         1.68461        0.176995 
        5.54495          1.6794        0.175715 
        5.56066          1.6706        0.174449 
        5.57637         1.66203        0.173195 
        5.59207         1.65627        0.171955 
        5.60778         1.65271        0.170726 
        5.62346         1.63936        0.169511 
        5.63916         1.63837        0.168307 
        5.65487         1.62562        0.167114 
         5.6706         1.62154        0.165931 
        5.68633         1.61199        0.164759 
        5.70203         1.60832        0.163601 
        5.71773         1.60031        0.162454 
        5.73344         1.59473        0.161317 
        5.74916         1.58627         0.16019 
        5.76486         1.57876        0.159076 
        5.78054         1.57071        0.157974 
        5.79626         1.56803        0.156879 
          5.812         1.56098        0.155794 
         5.8277         1.55177        0.154722 
        5.84339          1.5449         0.15366 
        5.85911         1.54136        0.152606 
        5.87484          1.5315        0.151562 
        5.89053         1.52803        0.150529 
        5.90623          1.5242        0.149506 
        5.92195         1.51554        0.148491 
        5.93767         1.50904        0.147486 
        5.95336         1.50424        0.146491 
        5.96905         1.49542        0.145507 
        5.98476         1.49124         0.14453 
        6.00048         1.48408        0.143561 
        6.01617          1.4765        0.142603 
        6.03185         1.47097        0.141654 
        6.04756         1.46669        0.140712 
        6.06331         1.46206        0.139777 
        6.07903          1.4561        0.138852 
        6.09473         1.44779        0.137936 
        6.11044         1.44195        0.137027 
        6.12616         1.43643        0.136127 
        6.14186         1.43087        0.135236 
        6.15755         1.42847        0.134353 
        6.17326         1.42193        0.133477 
        6.18898         1.41516        0.132609 
        6.20467         1.41211         0.13175 
        6.22036         1.40581        0.130898 
         6.2361         1.40126        0.130052 
         6.2518         1.39588        0.129214 
        6.26748         1.38811        0.128386 
        6.28319         1.38357        0.127563 
        6.29893         1.37693        0.126746 
        6.31463         1.37425        0.125938 
        6.33033         1.36623        0.125137 
        6.34604         1.36323        0.124342 
        6.36177         1.35659        0.123554 
        6.37747         1.35375        0.122774 
